1 557
2 546
3 566
4 564
5 549
6 514
7 481
8 492
9 446
10 403
11 334
12 335
13 333
14 337
15 348
16 381
17 414
18 410
19 475
20 499
21 535
22 539
23 539
24 540
25 516
26 494
27 460
28 443
29 417
30 364
31 328
32 321
33 314
34 316
35 330
36 343
37 383
38 396
39 470
40 512
41 530
42 546
43 552
44 547
45 524
46 493
47 462
48 457
49 414
50 374
51 339
52 326
53 316
54 308
55 352
56 368
57 393
58 406
59 442
60 492
61 513
62 538
63 551
64 556
65 544
66 512
67 485
68 456
69 413
70 367
71 360
72 346
73 320
74 308
75 325
76 346
77 403
78 434
79 463
80 499
81 525
82 546
83 567
84 552
85 539
86 504
87 484
88 478
89 454
90 402
91 366
92 342
93 331
94 363
95 384
96 424
97 433
98 438
99 465
100 523
101 549
102 536
103 564
104 562
105 552
106 510
107 480
108 454
109 418
110 378
111 346
112 357
113 328
114 334
115 326
116 390
117 417
118 430
119 477
120 514
121 535
122 545
123 577
124 572
125 567
126 531
127 506
128 498
129 441
130 377
131 347
132 366
133 330
134 336
135 351
136 380
137 413
138 419
139 490
140 520
141 561
142 540
143 550
144 538
145 530
146 509
147 474
148 472
149 429
150 397
151 355
152 365
153 340
154 356
155 362
156 386
157 418
158 417
159 477
160 527
161 575
162 563
163 569
164 565
165 544
166 507
167 475
168 473
169 410
170 380
171 350
172 343
173 329
174 340
175 346
176 369
177 396
178 397
179 453
180 493
181 527
182 532
183 548
184 548
185 526
186 499
187 458
188 448
189 414
190 382
191 343
192 337
193 331
194 316
195 333
196 361
197 397
198 399
199 433
200 480
201 502
202 518
203 529
204 516
205 506
206 473
207 454
208 446
209 410
210 354
211 327
212 313
213 314
214 309
215 333
216 355
217 374
218 388
219 435
220 493
221 511
222 521
223 515
224 509
225 507
226 473
227 428
228 403
229 386
230 341
231 323
232 307
233 291
234 301
235 292
236 334
237 369
238 394
239 423
240 464
241 501
242 500
243 539
244 522
245 501
246 446
247 435
248 410
249 376
250 340
251 303
252 306
253 277
254 282
255 292
256 339
257 352
258 377
259 414
260 450
261 499
262 500
263 528
264 520
265 535
266 508
267 453
268 432
269 385
270 350
271 307
272 305
273 265
274 283
275 293
276 322
277 358
278 369
279 395
280 424
281 469
282 483
283 508
284 506
285 502
286 480
287 436
288 424
289 385
290 342
291 303
292 307
293 292
294 295
295 318
296 357
297 385
298 375
299 432
300 466
301 506
302 505
303 500
304 506
305 500
306 492
307 436
308 413
309 382
310 328
311 287
312 282
313 276
314 283
315 281
316 297
317 346
318 357
319 413
320 455
321 487
322 501
323 514
324 515
325 488
326 466
327 422
328 407
329 358
330 309
331 273
332 268
333 259
334 254
335 286
336 318
337 358
338 359
339 398
340 439
341 468
342 501
343 508
344 490
345 473
346 485
347 439
348 408
349 354
350 300
351 270
352 275
353 301
354 296
355 309
356 312
357 340
358 348
359 394
360 448
361 487
362 502
363 504
364 488
365 477
366 478
367 431
368 407
369 373
370 331
371 314
372 284
373 275
374 282
375 281
376 315
377 369
378 392
379 403
380 460
381 497
382 512
383 527
384 513
385 506
386 471
387 434
388 410
389 364
390 302
391 283
392 273
393 268
394 284
395 285
396 312
397 330
398 351
399 390
400 451
401 474
402 481
403 498
404 491
405 497
406 457
407 435
408 402
409 363
410 322
411 288
412 280
413 252
414 270
415 271
416 310
417 341
418 380
419 421
420 457
421 488
422 481
423 498
424 467
425 479
426 466
427 399
428 389
429 368
430 330
431 285
432 284
433 262
434 278
435 278
436 336
437 361
438 361
439 395
440 440
441 479
442 457
443 477
444 490
445 488
446 458
447 418
448 415
449 357
450 335
451 283
452 284
453 268
454 272
455 279
456 308
457 351
458 357
459 397
460 434
461 470
462 475
463 503
464 503
465 462
466 461
467 416
468 409
469 345
470 320
471 275
472 272
473 249
474 262
475 296
476 305
477 350
478 341
479 400
480 449
481 475
482 476
483 484
484 486
485 474
486 438
487 390
488 399
489 360
490 314
491 293
492 278
493 266
494 264
495 280
496 302
497 342
498 348
499 376
500 435
501 465
502 475
503 479
504 482
505 469
506 471
507 426
508 406
509 382
510 311
511 277
512 271
513 284
514 293
515 302
516 323
517 362
518 368
519 396
520 462
521 466
522 485
523 514
524 507
525 485
526 466
527 446
528 419
529 397
530 357
531 344
532 331
533 322
534 323
535 340
536 371
537 398
538 431
539 482
540 546
541 596
542 627
543 637
544 621
545 616
546 580
547 528
548 477
549 455
550 398
551 352
552 340
553 318
554 332
555 333
556 370
557 395
558 418
559 442
560 493
561 523
562 529
563 546
564 526
565 524
566 484
567 467
568 439
569 387
570 335
571 296
572 297
573 275
574 280
575 275
576 324
577 345
578 351
579 366
580 414
581 462
582 459
583 490
584 472
585 468
586 445
587 394
588 397
589 361
590 329
591 277
592 265
593 239
594 255
595 264
596 288
597 319
598 323
599 364
600 404
601 456
602 464
603 480
604 468
605 459
606 430
607 403
608 390
609 341
610 293
611 256
612 250
613 236
614 258
615 280
616 293
617 323
618 341
619 391
620 425
621 454
622 478
623 469
624 460
625 452
626 443
627 386
628 376
629 347
630 300
631 252
632 233
633 229
634 245
635 267
636 264
637 309
638 316
639 355
640 414
641 443
642 434
643 459
644 471
645 459
646 432
647 388
648 376
649 339
650 307
651 298
652 303
653 338
654 349
655 405
656 421
657 480
658 507
659 546
660 612
661 645
662 676
663 730
664 793
665 882
666 1003
667 1076
668 1161
669 1227
670 1247
671 1231
672 1240
673 1279
674 1330
675 1394
676 1441
677 1463
678 1366
679 1349
680 1349
681 1270
682 1196
683 1053
684 880
685 749
686 634
687 539
688 449
689 340
690 244
691 195
692 123
693 50
694 66
695 77
696 101
697 138
698 161
699 202
700 275
701 337
702 357
703 390
704 409
705 431
706 435
707 432
708 440
709 409
710 359
711 338
712 329
713 308
714 312
715 308
716 342
717 377
718 396
719 412
720 465
721 502
722 518
723 530
724 527
725 514
726 474
727 441
728 434
729 408
730 366
731 318
732 314
733 288
734 306
735 309
736 340
737 363
738 383
739 432
740 482
741 518
742 525
743 544
744 520
745 513
746 489
747 452
748 432
749 426
750 380
751 341
752 331
753 308
754 316
755 327
756 362
757 395
758 414
759 444
760 501
761 544
762 538
763 555
764 549
765 542
766 510
767 474
768 466
769 428
770 394
771 334
772 320
773 302
774 341
775 359
776 376
777 410
778 413
779 439
780 470
781 544
782 549
783 573
784 560
785 559
786 529
787 478
788 474
789 424
790 408
791 384
792 373
793 349
794 353
795 371
796 388
797 414
798 415
799 466
800 515
801 567
802 575
803 566
804 576
805 560
806 552
807 506
808 510
809 466
810 415
811 387
812 375
813 361
814 359
815 382
816 404
817 452
818 448
819 498
820 561
821 596
822 604
823 605
824 603
825 595
826 590
827 544
828 506
829 479
830 434
831 397
832 397
833 391
834 398
835 437
836 445
837 487
838 498
839 537
840 589
841 604
842 609
843 622
844 632
845 618
846 597
847 551
848 553
849 526
850 450
851 424
852 421
853 425
854 418
855 431
856 455
857 486
858 496
859 514
860 571
861 621
862 636
863 645
864 634
865 629
866 617
867 581
868 568
869 542
870 482
871 451
872 443
873 442
874 452
875 457
876 492
877 517
878 530
879 567
880 603
881 628
882 639
883 663
884 662
885 679
886 635
887 611
888 595
889 564
890 509
891 472
892 462
893 448
894 463
895 470
896 495
897 514
898 543
899 574
900 631
901 665
902 659
903 701
904 693
905 698
906 634
907 591
908 587
909 560
910 516
911 471
912 486
913 458
914 459
915 459
916 485
917 527
918 544
919 555
920 604
921 653
922 644
923 667
924 638
925 654
926 624
927 573
928 566
929 528
930 484
931 445
932 466
933 436
934 430
935 429
936 456
937 499
938 505
939 541
940 567
941 608
942 616
943 646
944 632
945 635
946 608
947 552
948 548
949 501
950 454
951 411
952 406
953 392
954 406
955 406
956 421
957 461
958 467
959 510
960 549
961 604
962 600
963 605
964 575
965 553
966 552
967 527
968 525
969 488
970 442
971 407
972 394
973 384
974 391
975 403
976 419
977 466
978 454
979 484
980 537
981 563
982 574
983 584
984 590
985 569
986 547
987 510
988 481
989 435
990 392
991 361
992 327
993 317
994 318
995 337
996 349
997 405
998 419
999 453
1000 500
1001 526
1002 541
1003 542
1004 548
1005 529
1006 499
1007 458
1008 462
1009 440
1010 380
1011 345
1012 322
1013 304
1014 298
1015 308
1016 335
1017 366
1018 376
1019 397
1020 443
1021 481
1022 508
1023 511
1024 491
1025 494
1026 461
1027 440
1028 406
1029 374
1030 315
1031 296
1032 287
1033 276
1034 274
1035 275
1036 308
1037 333
1038 348
1039 406
1040 470
1041 498
1042 502
1043 510
1044 488
1045 491
1046 457
1047 419
1048 393
1049 377
1050 338
1051 297
1052 288
1053 270
1054 293
1055 273
1056 296
1057 328
1058 342
1059 381
1060 436
1061 468
1062 477
1063 509
1064 482
1065 477
1066 453
1067 406
1068 405
1069 366
1070 333
1071 304
1072 298
1073 267
1074 288
1075 306
1076 314
1077 357
1078 352
1079 420
1080 454
1081 501
1082 508
1083 511
1084 506
1085 510
1086 473
1087 426
1088 431
1089 394
1090 367
1091 326
1092 306
1093 285
1094 287
1095 301
1096 311
1097 349
1098 360
1099 398
1100 431
1101 479
1102 488
1103 506
1104 514
1105 497
1106 466
1107 410
1108 434
1109 409
1110 363
1111 328
1112 305
1113 290
1114 306
1115 304
1116 323
1117 375
1118 388
1119 439
1120 468
1121 508
1122 528
1123 510
1124 513
1125 494
1126 477
1127 436
1128 426
1129 388
1130 331
1131 294
1132 295
1133 298
1134 285
1135 313
1136 330
1137 359
1138 370
1139 407
1140 458
1141 492
1142 512
1143 523
1144 524
1145 495
1146 466
1147 418
1148 395
1149 377
1150 333
1151 319
1152 306
1153 289
1154 298
1155 308
1156 312
1157 337
1158 371
1159 410
1160 448
1161 479
1162 505
1163 514
1164 502
1165 486
1166 475
1167 450
1168 409
1169 379
1170 314
1171 266
1172 257
1173 244
1174 281
1175 305
1176 321
1177 353
1178 374
1179 390
1180 463
1181 486
1182 491
1183 498
1184 477
1185 472
1186 448
1187 416
1188 392
1189 371
1190 301
1191 283
1192 275
1193 265
1194 276
1195 269
1196 322
1197 349
1198 358
1199 391
1200 426
1201 441
1202 458
1203 469
1204 458
1205 460
1206 415
1207 382
1208 372
1209 379
1210 288
1211 257
1212 254
1213 226
1214 266
1215 283
1216 291
1217 309
1218 326
1219 376
1220 427
1221 442
1222 448
1223 482
1224 468
1225 465
1226 435
1227 396
1228 390
1229 364
1230 302
1231 273
1232 260
1233 248
1234 262
1235 239
1236 244
1237 301
1238 340
1239 375
1240 400
1241 433
1242 440
1243 481
1244 470
1245 461
1246 423
1247 379
1248 374
1249 349
1250 305
1251 259
1252 247
1253 223
1254 242
1255 245
1256 273
1257 312
1258 331
1259 356
1260 400
1261 449
1262 440
1263 440
1264 446
1265 438
1266 392
1267 357
1268 340
1269 328
1270 297
1271 237
1272 222
1273 215
1274 230
1275 228
1276 235
1277 288
1278 300
1279 367
1280 372
1281 420
1282 423
1283 435
1284 425
1285 404
1286 404
1287 362
1288 374
1289 340
1290 314
1291 248
1292 226
1293 218
1294 224
1295 250
1296 255
1297 297
1298 307
1299 322
1300 378
1301 422
1302 449
1303 443
1304 431
1305 431
1306 410
1307 347
1308 334
1309 307
1310 285
1311 233
1312 227
1313 213
1314 220
1315 225
1316 249
1317 296
1318 294
1319 343
1320 389
1321 418
1322 421
1323 436
1324 430
1325 397
1326 384
1327 343
1328 361
1329 360
1330 313
1331 271
1332 252
1333 242
1334 229
1335 236
1336 221
1337 285
1338 303
1339 326
1340 379
1341 402
1342 423
1343 432
1344 410
1345 376
1346 376
1347 345
1348 344
1349 329
1350 274
1351 244
1352 209
1353 214
1354 218
1355 218
1356 225
1357 267
1358 280
1359 302
1360 371
1361 432
1362 441
1363 438
1364 427
1365 419
1366 400
1367 360
1368 341
1369 326
1370 259
1371 242
1372 203
1373 209
1374 222
1375 219
1376 249
1377 275
1378 294
1379 305
1380 348
1381 360
1382 403
1383 428
1384 422
1385 433
1386 410
1387 364
1388 349
1389 340
1390 259
1391 224
1392 206
1393 200
1394 209
1395 228
1396 242
1397 272
1398 297
1399 329
1400 386
1401 405
1402 426
1403 441
1404 428
1405 416
1406 383
1407 344
1408 328
1409 310
1410 275
1411 257
1412 235
1413 191
1414 199
1415 208
1416 255
1417 288
1418 293
1419 320
1420 379
1421 413
1422 389
1423 419
1424 416
1425 421
1426 404
1427 366
1428 346
1429 326
1430 290
1431 248
1432 210
1433 201
1434 242
1435 236
1436 260
1437 278
1438 299
1439 344
1440 375
1441 417
1442 431
1443 428
1444 426
1445 408
1446 393
1447 334
1448 341
1449 320
1450 271
1451 209
1452 212
1453 179
1454 197
1455 212
1456 249
1457 277
1458 285
1459 329
1460 371
1461 410
1462 402
1463 422
1464 426
1465 424
1466 405
1467 358
1468 362
1469 337
1470 278
1471 229
1472 207
1473 191
1474 200
1475 219
1476 228
1477 289
1478 287
1479 315
1480 344
1481 387
1482 409
1483 411
1484 417
1485 393
1486 388
1487 351
1488 352
1489 302
1490 251
1491 192
1492 189
1493 199
1494 215
1495 248
1496 237
1497 272
1498 285
1499 309
1500 356
1501 403
1502 427
1503 414
1504 433
1505 421
1506 408
1507 349
1508 343
1509 337
1510 287
1511 251
1512 227
1513 201
1514 214
1515 232
1516 247
1517 288
1518 295
1519 305
1520 366
1521 412
1522 446
1523 450
1524 465
1525 447
1526 431
1527 394
1528 377
1529 368
1530 322
1531 292
1532 281
1533 286
1534 298
1535 313
1536 334
1537 389
1538 428
1539 457
1540 538
1541 563
1542 588
1543 562
1544 545
1545 524
1546 477
1547 430
1548 404
1549 419
1550 360
1551 340
1552 292
1553 279
1554 282
1555 277
1556 298
1557 324
1558 342
1559 358
1560 439
1561 467
1562 502
1563 475
1564 461
1565 474
1566 437
1567 404
1568 381
1569 366
1570 283
1571 249
1572 199
1573 188
1574 208
1575 208
1576 225
1577 243
1578 289
1579 297
1580 356
1581 378
1582 398
1583 412
1584 398
1585 395
1586 375
1587 344
1588 326
1589 306
1590 243
1591 214
1592 185
1593 177
1594 193
1595 183
1596 226
1597 263
1598 264
1599 272
1600 347
1601 385
1602 401
1603 416
1604 415
1605 399
1606 366
1607 353
1608 342
1609 310
1610 242
1611 206
1612 190
1613 172
1614 195
1615 216
1616 222
1617 264
1618 276
1619 288
1620 343
1621 381
1622 399
1623 436
1624 395
1625 379
1626 369
1627 331
1628 306
1629 273
1630 243
1631 201
1632 183
1633 168
1634 183
1635 187
1636 214
1637 248
1638 244
1639 276
1640 312
1641 368
1642 391
1643 391
1644 375
1645 356
1646 336
1647 319
1648 324
1649 317
1650 316
1651 274
1652 325
1653 341
1654 351
1655 389
1656 403
1657 462
1658 504
1659 564
1660 654
1661 758
1662 858
1663 956
1664 1065
1665 1184
1666 1297
1667 1333
1668 1414
1669 1425
1670 1436
1671 1447
1672 1515
1673 1520
1674 1494
1675 1462
1676 1366
1677 1323
1678 1209
1679 1123
1680 1005
1681 883
1682 736
1683 629
1684 543
1685 428
1686 351
1687 269
1688 229
1689 157
1690 53
1691 10
1692 14
1693 -22
1694 9
1695 50
1696 82
1697 182
1698 227
1699 255
1700 351
1701 406
1702 444
1703 482
1704 495
1705 477
1706 456
1707 412
1708 401
1709 378
1710 329
1711 295
1712 268
1713 256
1714 244
1715 263
1716 291
1717 325
1718 335
1719 338
1720 408
1721 429
1722 449
1723 438
1724 453
1725 441
1726 426
1727 415
1728 363
1729 349
1730 307
1731 270
1732 270
1733 259
1734 259
1735 277
1736 291
1737 333
1738 345
1739 358
1740 407
1741 435
1742 463
1743 472
1744 467
1745 481
1746 468
1747 429
1748 405
1749 410
1750 339
1751 313
1752 289
1753 274
1754 273
1755 268
1756 286
1757 325
1758 358
1759 368
1760 419
1761 473
1762 473
1763 500
1764 474
1765 479
1766 456
1767 424
1768 408
1769 390
1770 331
1771 296
1772 295
1773 275
1774 286
1775 288
1776 312
1777 346
1778 382
1779 389
1780 436
1781 465
1782 464
1783 490
1784 510
1785 492
1786 467
1787 450
1788 432
1789 414
1790 349
1791 309
1792 303
1793 306
1794 322
1795 318
1796 332
1797 380
1798 379
1799 402
1800 425
1801 476
1802 521
1803 551
1804 545
1805 519
1806 494
1807 442
1808 446
1809 427
1810 382
1811 331
1812 337
1813 318
1814 329
1815 330
1816 329
1817 378
1818 409
1819 423
1820 454
1821 530
1822 545
1823 585
1824 561
1825 553
1826 544
1827 499
1828 495
1829 464
1830 413
1831 371
1832 360
1833 334
1834 357
1835 378
1836 379
1837 406
1838 414
1839 447
1840 521
1841 564
1842 537
1843 570
1844 585
1845 545
1846 542
1847 518
1848 511
1849 478
1850 446
1851 401
1852 397
1853 377
1854 379
1855 402
1856 404
1857 452
1858 456
1859 482
1860 542
1861 578
1862 585
1863 582
1864 586
1865 593
1866 578
1867 524
1868 521
1869 498
1870 436
1871 411
1872 394
1873 403
1874 398
1875 402
1876 411
1877 447
1878 482
1879 519
1880 575
1881 602
1882 620
1883 611
1884 601
1885 585
1886 578
1887 546
1888 534
1889 542
1890 485
1891 456
1892 439
1893 420
1894 417
1895 418
1896 429
1897 476
1898 508
1899 520
1900 567
1901 615
1902 626
1903 622
1904 629
1905 617
1906 591
1907 554
1908 526
1909 532
1910 469
1911 450
1912 421
1913 414
1914 402
1915 401
1916 426
1917 473
1918 499
1919 512
1920 577
1921 603
1922 611
1923 623
1924 621
1925 625
1926 597
1927 565
1928 528
1929 520
1930 464
1931 431
1932 435
1933 403
1934 404
1935 426
1936 434
1937 454
1938 469
1939 500
1940 540
1941 585
1942 588
1943 601
1944 569
1945 572
1946 546
1947 497
1948 509
1949 510
1950 451
1951 402
1952 365
1953 335
1954 365
1955 357
1956 390
1957 415
1958 454
1959 457
1960 502
1961 575
1962 575
1963 586
1964 561
1965 559
1966 556
1967 517
1968 493
1969 458
1970 430
1971 384
1972 388
1973 323
1974 329
1975 322
1976 343
1977 413
1978 411
1979 427
1980 470
1981 525
1982 550
1983 564
1984 543
1985 534
1986 521
1987 452
1988 440
1989 427
1990 364
1991 331
1992 314
1993 277
1994 288
1995 310
1996 320
1997 340
1998 364
1999 381
2000 427
2001 490
2002 514
2003 502
2004 512
2005 482
2006 457
2007 392
2008 396
2009 384
2010 338
2011 298
2012 273
2013 247
2014 255
2015 274
2016 291
2017 319
2018 331
2019 353
2020 427
2021 443
2022 454
2023 450
2024 472
2025 462
2026 443
2027 402
2028 385
2029 399
2030 307
2031 263
2032 231
2033 223
2034 239
2035 242
2036 268
2037 294
2038 303
2039 338
2040 388
2041 426
2042 447
2043 470
2044 440
2045 442
2046 421
2047 373
2048 364
2049 332
2050 290
2051 241
2052 240
2053 211
2054 212
2055 224
2056 247
2057 293
2058 295
2059 328
2060 367
2061 415
2062 444
2063 443
2064 432
2065 433
2066 440
2067 409
2068 405
2069 372
2070 303
2071 273
2072 236
2073 230
2074 230
2075 243
2076 267
2077 296
2078 323
2079 334
2080 388
2081 423
2082 466
2083 465
2084 470
2085 459
2086 439
2087 394
2088 358
2089 361
2090 307
2091 261
2092 250
2093 249
2094 245
2095 257
2096 294
2097 332
2098 345
2099 339
2100 406
2101 444
2102 460
2103 483
2104 482
2105 483
2106 443
2107 412
2108 390
2109 374
2110 335
2111 286
2112 267
2113 257
2114 270
2115 262
2116 268
2117 314
2118 324
2119 351
2120 404
2121 459
2122 464
2123 479
2124 475
2125 472
2126 467
2127 415
2128 383
2129 375
2130 323
2131 278
2132 262
2133 267
2134 271
2135 286
2136 279
2137 322
2138 335
2139 338
2140 407
2141 428
2142 453
2143 477
2144 484
2145 465
2146 464
2147 417
2148 390
2149 378
2150 321
2151 302
2152 273
2153 248
2154 247
2155 259
2156 287
2157 315
2158 352
2159 349
2160 405
2161 442
2162 467
2163 482
2164 470
2165 460
2166 433
2167 399
2168 381
2169 377
2170 313
2171 288
2172 245
2173 217
2174 242
2175 264
2176 277
2177 323
2178 344
2179 356
2180 391
2181 441
2182 445
2183 471
2184 474
2185 450
2186 431
2187 380
2188 373
2189 350
2190 292
2191 235
2192 239
2193 235
2194 234
2195 248
2196 258
2197 306
2198 303
2199 323
2200 372
2201 421
2202 443
2203 445
2204 446
2205 433
2206 430
2207 389
2208 363
2209 354
2210 298
2211 257
2212 221
2213 230
2214 226
2215 244
2216 237
2217 292
2218 317
2219 333
2220 383
2221 395
2222 409
2223 415
2224 417
2225 416
2226 410
2227 372
2228 347
2229 349
2230 280
2231 235
2232 208
2233 199
2234 215
2235 211
2236 225
2237 267
2238 295
2239 303
2240 372
2241 403
2242 420
2243 429
2244 409
2245 415
2246 388
2247 363
2248 346
2249 338
2250 281
2251 228
2252 211
2253 182
2254 206
2255 210
2256 228
2257 272
2258 301
2259 331
2260 370
2261 393
2262 400
2263 417
2264 411
2265 407
2266 408
2267 365
2268 338
2269 305
2270 265
2271 232
2272 209
2273 196
2274 203
2275 198
2276 215
2277 256
2278 260
2279 297
2280 351
2281 399
2282 417
2283 432
2284 432
2285 419
2286 400
2287 354
2288 357
2289 347
2290 275
2291 220
2292 187
2293 190
2294 172
2295 193
2296 211
2297 248
2298 268
2299 274
2300 340
2301 383
2302 381
2303 387
2304 388
2305 369
2306 374
2307 337
2308 341
2309 327
2310 269
2311 227
2312 200
2313 193
2314 200
2315 206
2316 212
2317 242
2318 263
2319 262
2320 355
2321 389
2322 398
2323 401
2324 403
2325 417
2326 373
2327 339
2328 331
2329 313
2330 259
2331 207
2332 181
2333 172
2334 181
2335 181
2336 198
2337 261
2338 272
2339 294
2340 355
2341 412
2342 406
2343 414
2344 406
2345 400
2346 377
2347 332
2348 328
2349 300
2350 249
2351 203
2352 189
2353 178
2354 181
2355 184
2356 214
2357 273
2358 268
2359 293
2360 337
2361 373
2362 395
2363 391
2364 403
2365 384
2366 397
2367 336
2368 325
2369 283
2370 229
2371 200
2372 169
2373 170
2374 143
2375 161
2376 184
2377 250
2378 265
2379 266
2380 330
2381 360
2382 386
2383 398
2384 400
2385 390
2386 374
2387 333
2388 315
2389 305
2390 246
2391 227
2392 184
2393 180
2394 188
2395 187
2396 211
2397 260
2398 280
2399 288
2400 336
2401 336
2402 359
2403 392
2404 394
2405 383
2406 361
2407 328
2408 302
2409 302
2410 245
2411 190
2412 168
2413 146
2414 169
2415 187
2416 203
2417 243
2418 264
2419 290
2420 348
2421 380
2422 393
2423 393
2424 383
2425 406
2426 362
2427 327
2428 313
2429 300
2430 246
2431 198
2432 184
2433 168
2434 189
2435 171
2436 189
2437 255
2438 252
2439 274
2440 318
2441 337
2442 367
2443 391
2444 385
2445 359
2446 344
2447 307
2448 306
2449 294
2450 244
2451 210
2452 191
2453 179
2454 176
2455 179
2456 187
2457 247
2458 237
2459 255
2460 308
2461 350
2462 389
2463 385
2464 389
2465 396
2466 373
2467 327
2468 312
2469 304
2470 231
2471 199
2472 160
2473 153
2474 160
2475 180
2476 204
2477 234
2478 244
2479 244
2480 315
2481 358
2482 368
2483 363
2484 379
2485 359
2486 355
2487 326
2488 283
2489 278
2490 230
2491 216
2492 162
2493 152
2494 146
2495 156
2496 200
2497 233
2498 254
2499 245
2500 314
2501 357
2502 364
2503 395
2504 391
2505 400
2506 359
2507 337
2508 314
2509 297
2510 255
2511 191
2512 168
2513 156
2514 168
2515 183
2516 199
2517 254
2518 272
2519 270
2520 315
2521 375
2522 394
2523 423
2524 425
2525 429
2526 416
2527 371
2528 376
2529 358
2530 305
2531 256
2532 232
2533 227
2534 246
2535 268
2536 286
2537 350
2538 385
2539 394
2540 440
2541 459
2542 478
2543 493
2544 471
2545 451
2546 418
2547 368
2548 368
2549 362
2550 317
2551 285
2552 261
2553 228
2554 233
2555 230
2556 236
2557 289
2558 295
2559 301
2560 378
2561 410
2562 416
2563 415
2564 420
2565 399
2566 378
2567 318
2568 305
2569 286
2570 224
2571 200
2572 173
2573 165
2574 156
2575 168
2576 185
2577 218
2578 232
2579 207
2580 271
2581 321
2582 355
2583 342
2584 362
2585 357
2586 324
2587 269
2588 249
2589 252
2590 195
2591 179
2592 128
2593 119
2594 121
2595 137
2596 159
2597 201
2598 221
2599 232
2600 305
2601 341
2602 369
2603 358
2604 351
2605 356
2606 337
2607 283
2608 251
2609 251
2610 194
2611 144
2612 136
2613 124
2614 152
2615 163
2616 173
2617 195
2618 204
2619 216
2620 285
2621 328
2622 350
2623 342
2624 318
2625 348
2626 310
2627 276
2628 268
2629 256
2630 204
2631 158
2632 129
2633 121
2634 128
2635 125
2636 163
2637 188
2638 214
2639 232
2640 275
2641 308
2642 328
2643 341
2644 317
2645 323
2646 325
2647 289
2648 302
2649 320
2650 308
2651 304
2652 313
2653 300
2654 321
2655 347
2656 374
2657 450
2658 486
2659 525
2660 640
2661 756
2662 859
2663 1019
2664 1140
2665 1230
2666 1278
2667 1305
2668 1326
2669 1362
2670 1376
2671 1389
2672 1412
2673 1360
2674 1285
2675 1208
2676 1111
2677 1049
2678 930
2679 785
2680 680
2681 590
2682 511
2683 443
2684 386
2685 299
2686 244
2687 146
2688 112
2689 67
2690 12
2691 -19
2692 -40
2693 -41
2694 -46
2695 -10
2696 45
2697 125
2698 178
2699 220
2700 302
2701 368
2702 414
2703 435
2704 439
2705 435
2706 405
2707 359
2708 348
2709 335
2710 269
2711 225
2712 197
2713 207
2714 201
2715 211
2716 206
2717 254
2718 281
2719 279
2720 342
2721 355
2722 403
2723 401
2724 398
2725 385
2726 377
2727 326
2728 337
2729 311
2730 264
2731 235
2732 207
2733 206
2734 207
2735 201
2736 195
2737 248
2738 266
2739 274
2740 344
2741 389
2742 417
2743 415
2744 428
2745 426
2746 409
2747 369
2748 339
2749 326
2750 266
2751 240
2752 204
2753 216
2754 220
2755 226
2756 241
2757 260
2758 264
2759 286
2760 352
2761 376
2762 424
2763 416
2764 409
2765 396
2766 395
2767 355
2768 347
2769 359
2770 279
2771 230
2772 198
2773 215
2774 227
2775 230
2776 232
2777 265
2778 300
2779 316
2780 371
2781 405
2782 446
2783 461
2784 453
2785 455
2786 437
2787 415
2788 371
2789 361
2790 291
2791 253
2792 229
2793 211
2794 226
2795 234
2796 256
2797 298
2798 308
2799 306
2800 371
2801 416
2802 442
2803 450
2804 457
2805 464
2806 432
2807 407
2808 368
2809 371
2810 320
2811 259
2812 250
2813 244
2814 265
2815 264
2816 293
2817 311
2818 333
2819 341
2820 418
2821 462
2822 462
2823 479
2824 461
2825 464
2826 451
2827 418
2828 403
2829 396
2830 344
2831 303
2832 271
2833 258
2834 278
2835 284
2836 298
2837 341
2838 374
2839 385
2840 445
2841 494
2842 513
2843 539
2844 524
2845 513
2846 481
2847 464
2848 437
2849 422
2850 363
2851 332
2852 319
2853 296
2854 312
2855 314
2856 332
2857 372
2858 381
2859 388
2860 436
2861 510
2862 521
2863 533
2864 524
2865 528
2866 508
2867 477
2868 455
2869 442
2870 381
2871 338
2872 320
2873 301
2874 324
2875 325
2876 347
2877 394
2878 413
2879 421
2880 475
2881 522
2882 539
2883 556
2884 549
2885 548
2886 516
2887 473
2888 476
2889 463
2890 427
2891 359
2892 332
2893 334
2894 335
2895 347
2896 360
2897 404
2898 414
2899 440
2900 477
2901 510
2902 548
2903 553
2904 550
2905 555
2906 526
2907 468
2908 460
2909 453
2910 406
2911 369
2912 347
2913 336
2914 318
2915 335
2916 340
2917 397
2918 409
2919 415
2920 451
2921 502
2922 529
2923 539
2924 555
2925 521
2926 526
2927 461
2928 449
2929 440
2930 383
2931 351
2932 339
2933 319
2934 307
2935 314
2936 320
2937 374
2938 383
2939 402
2940 442
2941 495
2942 517
2943 507
2944 502
2945 485
2946 491
2947 440
2948 420
2949 400
2950 342
2951 331
2952 304
2953 290
2954 291
2955 303
2956 304
2957 345
2958 366
2959 370
2960 440
2961 466
2962 494
2963 504
2964 510
2965 490
2966 479
2967 433
2968 406
2969 401
2970 318
2971 300
2972 286
2973 303
2974 295
2975 294
2976 298
2977 332
2978 338
2979 341
2980 395
2981 419
2982 455
2983 460
2984 461
2985 442
2986 438
2987 411
2988 378
2989 366
2990 291
2991 273
2992 242
2993 246
2994 249
2995 241
2996 248
2997 271
2998 289
2999 282
3000 365
3001 399
3002 430
3003 415
3004 409
3005 403
3006 387
3007 345
3008 315
3009 309
3010 256
3011 230
3012 194
3013 187
3014 189
3015 181
3016 207
3017 232
3018 245
3019 240
3020 302
3021 351
3022 377
3023 388
3024 379
3025 371
3026 340
3027 320
3028 284
3029 286
3030 214
3031 177
3032 153
3033 154
3034 165
3035 160
3036 174
3037 208
3038 247
3039 256
3040 302
3041 347
3042 367
3043 379
3044 372
3045 381
3046 346
3047 300
3048 271
3049 270
3050 207
3051 176
3052 152
3053 147
3054 156
3055 139
3056 153
3057 195
3058 232
3059 256
3060 311
3061 342
3062 362
3063 381
3064 373
3065 375
3066 363
3067 320
3068 293
3069 275
3070 221
3071 170
3072 152
3073 137
3074 152
3075 164
3076 189
3077 232
3078 252
3079 265
3080 307
3081 362
3082 383
3083 379
3084 382
3085 374
3086 375
3087 341
3088 313
3089 274
3090 220
3091 173
3092 168
3093 168
3094 178
3095 169
3096 189
3097 238
3098 246
3099 264
3100 305
3101 368
3102 381
3103 397
3104 387
3105 395
3106 376
3107 320
3108 309
3109 282
3110 251
3111 214
3112 185
3113 165
3114 173
3115 180
3116 197
3117 234
3118 247
3119 250
3120 295
3121 355
3122 381
3123 404
3124 396
3125 373
3126 365
3127 329
3128 305
3129 297
3130 252
3131 205
3132 174
3133 161
3134 162
3135 177
3136 184
3137 234
3138 253
3139 275
3140 323
3141 355
3142 383
3143 384
3144 392
3145 381
3146 376
3147 322
3148 315
3149 297
3150 248
3151 219
3152 173
3153 184
3154 180
3155 167
3156 171
3157 227
3158 266
3159 258
3160 316
3161 346
3162 384
3163 385
3164 392
3165 376
3166 364
3167 333
3168 311
3169 305
3170 246
3171 225
3172 182
3173 177
3174 185
3175 182
3176 202
3177 234
3178 241
3179 241
3180 302
3181 339
3182 374
3183 386
3184 386
3185 371
3186 346
3187 320
3188 275
3189 269
3190 211
3191 172
3192 135
3193 126
3194 138
3195 139
3196 153
3197 197
3198 248
3199 237
3200 294
3201 334
3202 361
3203 366
3204 372
3205 366
3206 347
3207 306
3208 282
3209 262
3210 228
3211 175
3212 154
3213 142
3214 153
3215 143
3216 157
3217 192
3218 204
3219 219
3220 262
3221 304
3222 321
3223 340
3224 335
3225 337
3226 321
3227 269
3228 266
3229 241
3230 204
3231 159
3232 132
3233 126
3234 131
3235 138
3236 130
3237 195
3238 217
3239 227
3240 263
3241 303
3242 352
3243 342
3244 347
3245 347
3246 326
3247 272
3248 266
3249 258
3250 188
3251 163
3252 116
3253 123
3254 110
3255 105
3256 112
3257 154
3258 193
3259 189
3260 256
3261 302
3262 334
3263 330
3264 324
3265 337
3266 317
3267 286
3268 254
3269 259
3270 184
3271 156
3272 145
3273 115
3274 107
3275 111
3276 155
3277 175
3278 198
3279 185
3280 242
3281 305
3282 324
3283 333
3284 320
3285 323
3286 302
3287 262
3288 244
3289 223
3290 178
3291 120
3292 93
3293 78
3294 98
3295 115
3296 132
3297 169
3298 169
3299 190
3300 222
3301 270
3302 303
3303 315
3304 304
3305 295
3306 296
3307 257
3308 236
3309 225
3310 169
3311 123
3312 88
3313 96
3314 79
3315 112
3316 122
3317 173
3318 194
3319 166
3320 237
3321 279
3322 321
3323 313
3324 321
3325 300
3326 286
3327 246
3328 223
3329 232
3330 175
3331 127
3332 85
3333 87
3334 92
3335 102
3336 111
3337 139
3338 185
3339 193
3340 262
3341 282
3342 296
3343 317
3344 316
3345 314
3346 291
3347 252
3348 225
3349 219
3350 165
3351 117
3352 93
3353 89
3354 85
3355 78
3356 102
3357 158
3358 190
3359 196
3360 240
3361 279
3362 289
3363 281
3364 283
3365 304
3366 299
3367 242
3368 237
3369 218
3370 156
3371 106
3372 94
3373 81
3374 72
3375 92
3376 95
3377 157
3378 169
3379 180
3380 238
3381 274
3382 315
3383 312
3384 296
3385 283
3386 312
3387 255
3388 236
3389 226
3390 171
3391 126
3392 100
3393 108
3394 85
3395 104
3396 104
3397 121
3398 153
3399 151
3400 221
3401 253
3402 290
3403 288
3404 287
3405 295
3406 296
3407 250
3408 225
3409 225
3410 156
3411 113
3412 88
3413 96
3414 91
3415 90
3416 112
3417 155
3418 188
3419 185
3420 235
3421 257
3422 274
3423 304
3424 302
3425 290
3426 288
3427 246
3428 238
3429 231
3430 170
3431 121
3432 95
3433 72
3434 73
3435 78
3436 88
3437 134
3438 168
3439 180
3440 228
3441 281
3442 281
3443 288
3444 296
3445 300
3446 293
3447 239
3448 232
3449 211
3450 162
3451 124
3452 86
3453 83
3454 80
3455 92
3456 96
3457 157
3458 173
3459 163
3460 224
3461 238
3462 278
3463 284
3464 295
3465 284
3466 276
3467 245
3468 223
3469 225
3470 173
3471 139
3472 103
3473 92
3474 86
3475 90
3476 110
3477 159
3478 177
3479 175
3480 238
3481 268
3482 295
3483 307
3484 306
3485 336
3486 327
3487 293
3488 259
3489 246
3490 207
3491 166
3492 139
3493 138
3494 149
3495 154
3496 176
3497 230
3498 261
3499 294
3500 336
3501 390
3502 431
3503 447
3504 445
3505 421
3506 407
3507 343
3508 307
3509 262
3510 228
3511 177
3512 147
3513 146
3514 148
3515 157
3516 175
3517 217
3518 229
3519 248
3520 287
3521 317
3522 342
3523 365
3524 372
3525 348
3526 331
3527 294
3528 284
3529 257
3530 198
3531 157
3532 121
3533 89
3534 75
3535 84
3536 71
3537 110
3538 136
3539 146
3540 220
3541 250
3542 297
3543 289
3544 298
3545 282
3546 260
3547 221
3548 191
3549 184
3550 133
3551 99
3552 64
3553 67
3554 66
3555 73
3556 98
3557 137
3558 171
3559 171
3560 222
3561 257
3562 282
3563 299
3564 287
3565 294
3566 272
3567 246
3568 232
3569 207
3570 159
3571 88
3572 64
3573 47
3574 61
3575 71
3576 74
3577 109
3578 136
3579 149
3580 205
3581 250
3582 275
3583 298
3584 295
3585 302
3586 287
3587 240
3588 216
3589 198
3590 145
3591 100
3592 67
3593 72
3594 53
3595 80
3596 82
3597 138
3598 159
3599 156
3600 222
3601 268
3602 296
3603 295
3604 310
3605 306
3606 292
3607 261
3608 220
3609 211
3610 156
3611 133
3612 107
3613 148
3614 154
3615 198
3616 231
3617 275
3618 314
3619 330
3620 394
3621 435
3622 461
3623 493
3624 577
3625 655
3626 772
3627 857
3628 934
3629 1046
3630 1059
3631 1083
3632 1039
3633 1086
3634 1138
3635 1192
3636 1248
3637 1269
3638 1218
3639 1138
3640 1148
3641 1100
3642 1059
3643 937
3644 757
3645 629
3646 549
3647 432
3648 320
3649 238
3650 105
3651 58
3652 -8
3653 -51
3654 -86
3655 -101
3656 -86
3657 -44
3658 -7
3659 -7
3660 60
3661 118
3662 180
3663 233
3664 243
3665 280
3666 305
3667 297
3668 281
3669 287
3670 234
3671 203
3672 182
3673 165
3674 172
3675 163
3676 196
3677 230
3678 244
3679 249
3680 296
3681 334
3682 357
3683 376
3684 366
3685 356
3686 349
3687 312
3688 269
3689 276
3690 216
3691 171
3692 144
3693 148
3694 141
3695 141
3696 161
3697 216
3698 225
3699 235
3700 302
3701 350
3702 368
3703 396
3704 388
3705 389
3706 368
3707 325
3708 293
3709 297
3710 257
3711 203
3712 172
3713 155
3714 158
3715 168
3716 189
3717 228
3718 227
3719 241
3720 304
3721 346
3722 359
3723 376
3724 374
3725 369
3726 358
3727 317
3728 313
3729 312
3730 263
3731 206
3732 188
3733 166
3734 177
3735 184
3736 190
3737 241
3738 256
3739 279
3740 330
3741 386
3742 403
3743 400
3744 401
3745 397
3746 388
3747 346
3748 337
3749 310
3750 277
3751 234
3752 206
3753 200
3754 205
3755 219
3756 222
3757 262
3758 269
3759 284
3760 340
3761 390
3762 414
3763 411
3764 414
3765 404
3766 401
3767 373
3768 350
3769 331
3770 296
3771 259
3772 226
3773 226
3774 210
3775 221
3776 233
3777 273
3778 282
3779 301
3780 369
3781 412
3782 436
3783 440
3784 458
3785 442
3786 446
3787 411
3788 388
3789 367
3790 301
3791 269
3792 230
3793 248
3794 242
3795 263
3796 267
3797 307
3798 320
3799 341
3800 408
3801 434
3802 476
3803 470
3804 487
3805 456
3806 472
3807 424
3808 412
3809 404
3810 344
3811 345
3812 287
3813 281
3814 277
3815 272
3816 272
3817 306
3818 332
3819 333
3820 412
3821 450
3822 485
3823 499
3824 525
3825 509
3826 509
3827 478
3828 432
3829 429
3830 374
3831 347
3832 304
3833 303
3834 285
3835 290
3836 315
3837 361
3838 388
3839 379
3840 441
3841 470
3842 506
3843 518
3844 525
3845 503
3846 496
3847 464
3848 446
3849 441
3850 379
3851 353
3852 314
3853 315
3854 315
3855 321
3856 348
3857 380
3858 402
3859 392
3860 449
3861 481
3862 523
3863 530
3864 525
3865 517
3866 503
3867 482
3868 452
3869 455
3870 382
3871 340
3872 313
3873 326
3874 333
3875 321
3876 333
3877 363
3878 392
3879 386
3880 440
3881 479
3882 514
3883 515
3884 509
3885 519
3886 479
3887 451
3888 429
3889 426
3890 391
3891 361
3892 317
3893 291
3894 288
3895 282
3896 288
3897 313
3898 344
3899 368
3900 424
3901 457
3902 485
3903 491
3904 500
3905 490
3906 482
3907 449
3908 416
3909 413
3910 365
3911 301
3912 282
3913 269
3914 281
3915 258
3916 262
3917 299
3918 337
3919 326
3920 365
3921 424
3922 444
3923 467
3924 473
3925 478
3926 466
3927 405
3928 384
3929 374
3930 316
3931 278
3932 252
3933 251
3934 255
3935 243
3936 238
3937 281
3938 307
3939 327
3940 359
3941 405
3942 420
3943 431
3944 445
3945 436
3946 424
3947 376
3948 359
3949 340
3950 292
3951 238
3952 229
3953 217
3954 214
3955 221
3956 224
3957 251
3958 255
3959 280
3960 310
3961 352
3962 394
3963 401
3964 415
3965 384
3966 375
3967 314
3968 301
3969 302
3970 259
3971 222
3972 170
3973 158
3974 153
3975 179
3976 208
3977 254
3978 257
3979 262
3980 299
3981 348
3982 365
3983 372
3984 383
3985 366
3986 377
3987 320
3988 316
3989 300
3990 238
3991 192
3992 161
3993 153
3994 111
3995 130
3996 142
3997 186
3998 207
3999 230
4000 278
4001 305
4002 343
4003 340
4004 360
4005 351
4006 340
4007 296
4008 288
4009 284
4010 242
4011 210
4012 158
4013 143
4014 119
4015 133
4016 158
4017 206
4018 230
4019 246
4020 305
4021 345
4022 372
4023 363
4024 380
4025 383
4026 356
4027 320
4028 295
4029 296
4030 227
4031 190
4032 162
4033 146
4034 140
4035 159
4036 167
4037 205
4038 240
4039 243
4040 294
4041 324
4042 372
4043 378
4044 393
4045 399
4046 390
4047 353
4048 317
4049 308
4050 258
4051 229
4052 175
4053 187
4054 174
4055 171
4056 177
4057 208
4058 258
4059 259
4060 306
4061 330
4062 385
4063 383
4064 381
4065 392
4066 369
4067 350
4068 323
4069 319
4070 257
4071 215
4072 178
4073 167
4074 164
4075 170
4076 191
4077 230
4078 245
4079 247
4080 310
4081 353
4082 393
4083 422
4084 413
4085 412
4086 396
4087 366
4088 350
4089 330
4090 274
4091 236
4092 201
4093 205
4094 189
4095 188
4096 213
4097 247
4098 280
4099 269
4100 316
4101 353
4102 388
4103 404
4104 403
4105 410
4106 405
4107 354
4108 327
4109 322
4110 278
4111 232
4112 199
4113 186
4114 195
4115 200
4116 217
4117 246
4118 260
4119 265
4120 314
4121 358
4122 389
4123 398
4124 408
4125 403
4126 395
4127 371
4128 334
4129 317
4130 275
4131 231
4132 200
4133 190
4134 187
4135 172
4136 187
4137 215
4138 244
4139 256
4140 301
4141 370
4142 388
4143 408
4144 399
4145 387
4146 365
4147 328
4148 298
4149 280
4150 250
4151 206
4152 174
4153 161
4154 182
4155 177
4156 205
4157 230
4158 250
4159 261
4160 301
4161 365
4162 369
4163 361
4164 389
4165 386
4166 371
4167 324
4168 300
4169 290
4170 254
4171 207
4172 168
4173 170
4174 172
4175 180
4176 162
4177 210
4178 221
4179 238
4180 279
4181 334
4182 354
4183 362
4184 367
4185 361
4186 347
4187 307
4188 284
4189 279
4190 250
4191 193
4192 168
4193 161
4194 146
4195 160
4196 163
4197 206
4198 225
4199 238
4200 261
4201 310
4202 354
4203 377
4204 369
4205 355
4206 366
4207 324
4208 309
4209 275
4210 236
4211 199
4212 152
4213 142
4214 134
4215 135
4216 147
4217 205
4218 230
4219 243
4220 264
4221 310
4222 360
4223 343
4224 364
4225 364
4226 352
4227 301
4228 289
4229 268
4230 215
4231 187
4232 155
4233 149
4234 128
4235 141
4236 148
4237 210
4238 235
4239 233
4240 283
4241 314
4242 356
4243 350
4244 365
4245 340
4246 341
4247 303
4248 265
4249 277
4250 212
4251 195
4252 141
4253 136
4254 122
4255 133
4256 127
4257 177
4258 216
4259 226
4260 292
4261 320
4262 352
4263 346
4264 351
4265 347
4266 342
4267 315
4268 286
4269 291
4270 239
4271 192
4272 152
4273 154
4274 145
4275 150
4276 164
4277 191
4278 234
4279 232
4280 279
4281 318
4282 343
4283 346
4284 352
4285 362
4286 334
4287 305
4288 254
4289 245
4290 204
4291 165
4292 134
4293 128
4294 138
4295 157
4296 167
4297 189
4298 220
4299 210
4300 258
4301 305
4302 329
4303 353
4304 360
4305 367
4306 352
4307 321
4308 274
4309 267
4310 228
4311 176
4312 142
4313 136
4314 128
4315 129
4316 143
4317 190
4318 216
4319 229
4320 271
4321 314
4322 335
4323 346
4324 347
4325 344
4326 329
4327 303
4328 272
4329 253
4330 218
4331 187
4332 155
4333 132
4334 113
4335 132
4336 155
4337 178
4338 207
4339 235
4340 276
4341 321
4342 349
4343 359
4344 349
4345 336
4346 327
4347 295
4348 291
4349 278
4350 240
4351 189
4352 148
4353 131
4354 123
4355 128
4356 127
4357 180
4358 209
4359 218
4360 266
4361 318
4362 346
4363 346
4364 352
4365 362
4366 347
4367 294
4368 261
4369 257
4370 235
4371 177
4372 138
4373 139
4374 142
4375 146
4376 151
4377 189
4378 198
4379 212
4380 266
4381 306
4382 332
4383 339
4384 360
4385 356
4386 348
4387 311
4388 284
4389 262
4390 220
4391 194
4392 148
4393 156
4394 125
4395 129
4396 127
4397 179
4398 203
4399 218
4400 270
4401 309
4402 352
4403 358
4404 377
4405 361
4406 334
4407 317
4408 286
4409 276
4410 226
4411 193
4412 148
4413 153
4414 139
4415 138
4416 149
4417 180
4418 205
4419 208
4420 270
4421 294
4422 315
4423 337
4424 362
4425 364
4426 340
4427 312
4428 275
4429 274
4430 237
4431 217
4432 160
4433 139
4434 140
4435 152
4436 166
4437 193
4438 215
4439 234
4440 328
4441 377
4442 393
4443 396
4444 421
4445 430
4446 420
4447 389
4448 333
4449 335
4450 273
4451 233
4452 245
4453 239
4454 228
4455 220
4456 258
4457 311
4458 335
4459 352
4460 399
4461 440
4462 450
4463 458
4464 476
4465 474
4466 429
4467 374
4468 344
4469 324
4470 306
4471 283
4472 247
4473 225
4474 227
4475 205
4476 219
4477 261
4478 284
4479 282
4480 331
4481 379
4482 394
4483 410
4484 412
4485 395
4486 357
4487 331
4488 325
4489 302
4490 246
4491 189
4492 152
4493 144
4494 118
4495 127
4496 144
4497 187
4498 202
4499 201
4500 234
4501 283
4502 315
4503 335
4504 347
4505 322
4506 314
4507 278
4508 252
4509 252
4510 207
4511 169
4512 146
4513 114
4514 93
4515 112
4516 129
4517 178
4518 201
4519 218
4520 259
4521 299
4522 329
4523 320
4524 358
4525 333
4526 329
4527 287
4528 262
4529 246
4530 208
4531 149
4532 121
4533 129
4534 103
4535 110
4536 95
4537 147
4538 168
4539 184
4540 235
4541 270
4542 312
4543 319
4544 352
4545 330
4546 314
4547 264
4548 250
4549 264
4550 222
4551 172
4552 140
4553 114
4554 102
4555 118
4556 111
4557 165
4558 197
4559 198
4560 251
4561 301
4562 338
4563 329
4564 357
4565 335
4566 309
4567 307
4568 275
4569 295
4570 296
4571 285
4572 288
4573 313
4574 288
4575 328
4576 356
4577 389
4578 433
4579 446
4580 545
4581 654
4582 767
4583 862
4584 1034
4585 1146
4586 1257
4587 1315
4588 1325
4589 1346
4590 1355
4591 1393
4592 1407
4593 1433
4594 1379
4595 1297
4596 1224
4597 1169
4598 1101
4599 984
4600 860
4601 725
4602 633
4603 544
4604 475
4605 389
4606 319
4607 241
4608 161
4609 122
4610 55
4611 2
4612 -14
4613 -39
4614 -39
4615 -23
4616 27
4617 84
4618 117
4619 138
4620 238
4621 312
4622 373
4623 421
4624 436
4625 435
4626 426
4627 416
4628 353
4629 319
4630 287
4631 249
4632 225
4633 210
4634 205
4635 219
4636 228
4637 268
4638 278
4639 287
4640 305
4641 368
4642 409
4643 424
4644 424
4645 418
4646 404
4647 373
4648 337
4649 326
4650 277
4651 232
4652 219
4653 203
4654 191
4655 194
4656 207
4657 242
4658 260
4659 287
4660 320
4661 361
4662 398
4663 424
4664 456
4665 423
4666 408
4667 368
4668 351
4669 344
4670 320
4671 268
4672 230
4673 222
4674 193
4675 221
4676 231
4677 260
4678 261
4679 288
4680 314
4681 357
4682 398
4683 423
4684 440
4685 429
4686 421
4687 384
4688 373
4689 344
4690 312
4691 270
4692 232
4693 249
4694 234
4695 245
4696 246
4697 265
4698 298
4699 325
4700 355
4701 393
4702 432
4703 434
4704 462
4705 436
4706 435
4707 401
4708 366
4709 350
4710 317
4711 295
4712 244
4713 232
4714 221
4715 256
4716 247
4717 285
4718 332
4719 348
4720 380
4721 411
4722 461
4723 464
4724 495
4725 462
4726 459
4727 433
4728 399
4729 401
4730 352
4731 325
4732 294
4733 299
4734 255
4735 279
4736 279
4737 298
4738 330
4739 329
4740 390
4741 431
4742 467
4743 477
4744 503
4745 490
4746 478
4747 456
4748 421
4749 430
4750 395
4751 358
4752 309
4753 297
4754 285
4755 286
4756 302
4757 328
4758 370
4759 371
4760 421
4761 467
4762 507
4763 526
4764 515
4765 522
4766 512
4767 487
4768 449
4769 457
4770 406
4771 376
4772 328
4773 326
4774 300
4775 299
4776 335
4777 361
4778 393
4779 391
4780 437
4781 485
4782 520
4783 549
4784 556
4785 548
4786 523
4787 497
4788 458
4789 462
4790 416
4791 377
4792 349
4793 334
4794 343
4795 329
4796 353
4797 386
4798 433
4799 428
4800 470
4801 511
4802 542
4803 556
4804 556
4805 562
4806 545
4807 519
4808 490
4809 475
4810 443
4811 402
4812 377
4813 347
4814 337
4815 351
4816 363
4817 394
4818 415
4819 419
4820 453
4821 520
4822 545
4823 576
4824 606
4825 599
4826 566
4827 539
4828 499
4829 477
4830 450
4831 401
4832 376
4833 353
4834 347
4835 362
4836 371
4837 392
4838 415
4839 427
4840 438
4841 509
4842 538
4843 547
4844 561
4845 550
4846 554
4847 529
4848 475
4849 451
4850 413
4851 366
4852 338
4853 334
4854 326
4855 334
4856 327
4857 372
4858 391
4859 395
4860 426
4861 477
4862 501
4863 511
4864 537
4865 518
4866 523
4867 486
4868 469
4869 440
4870 405
4871 359
4872 333
4873 319
4874 299
4875 317
4876 297
4877 323
4878 369
4879 379
4880 403
4881 469
4882 505
4883 491
4884 531
4885 504
4886 500
4887 467
4888 410
4889 397
4890 351
4891 318
4892 293
4893 304
4894 279
4895 276
4896 275
4897 316
4898 341
4899 347
4900 398
4901 437
4902 479
4903 468
4904 498
4905 473
4906 457
4907 428
4908 386
4909 380
4910 344
4911 293
4912 244
4913 227
4914 210
4915 230
4916 251
4917 272
4918 292
4919 282
4920 331
4921 382
4922 403
4923 396
4924 415
4925 405
4926 390
4927 372
4928 323
4929 322
4930 281
4931 254
4932 210
4933 202
4934 165
4935 177
4936 201
4937 220
4938 265
4939 268
4940 310
4941 350
4942 385
4943 382
4944 398
4945 387
4946 366
4947 353
4948 311
4949 295
4950 260
4951 221
4952 182
4953 169
4954 164
4955 165
4956 181
4957 202
4958 220
4959 236
4960 268
4961 306
4962 348
4963 376
4964 378
4965 375
4966 358
4967 331
4968 300
4969 277
4970 257
4971 212
4972 172
4973 165
4974 180
4975 178
4976 196
4977 214
4978 240
4979 250
4980 281
4981 340
4982 353
4983 377
4984 404
4985 376
4986 373
4987 367
4988 332
4989 305
4990 284
4991 221
4992 183
4993 181
4994 177
4995 192
4996 184
4997 215
4998 240
4999 260
5000 282
5001 337
5002 372
5003 396
5004 408
5005 408
5006 394
5007 360
5008 340
5009 329
5010 287
5011 246
5012 213
5013 187
5014 170
5015 199
5016 212
5017 243
5018 262
5019 257
5020 305
5021 366
5022 384
5023 399
5024 424
5025 399
5026 408
5027 369
5028 343
5029 333
5030 306
5031 237
5032 203
5033 204
5034 172
5035 206
5036 211
5037 222
5038 252
5039 270
5040 310
5041 357
5042 404
5043 404
5044 424
5045 407
5046 395
5047 364
5048 351
5049 349
5050 307
5051 275
5052 237
5053 227
5054 205
5055 203
5056 202
5057 232
5058 286
5059 284
5060 326
5061 363
5062 410
5063 420
5064 431
5065 413
5066 399
5067 375
5068 336
5069 331
5070 285
5071 242
5072 214
5073 209
5074 189
5075 201
5076 215
5077 236
5078 276
5079 283
5080 323
5081 347
5082 415
5083 425
5084 422
5085 418
5086 401
5087 372
5088 327
5089 332
5090 301
5091 259
5092 214
5093 198
5094 191
5095 192
5096 214
5097 232
5098 255
5099 269
5100 296
5101 345
5102 384
5103 404
5104 404
5105 392
5106 372
5107 364
5108 333
5109 325
5110 295
5111 247
5112 225
5113 203
5114 189
5115 191
5116 215
5117 234
5118 258
5119 269
5120 293
5121 345
5122 373
5123 381
5124 389
5125 377
5126 360
5127 343
5128 305
5129 295
5130 275
5131 215
5132 181
5133 160
5134 141
5135 171
5136 179
5137 217
5138 240
5139 262
5140 286
5141 345
5142 360
5143 380
5144 373
5145 358
5146 356
5147 340
5148 322
5149 321
5150 271
5151 214
5152 165
5153 143
5154 137
5155 160
5156 175
5157 189
5158 222
5159 254
5160 275
5161 327
5162 377
5163 370
5164 381
5165 359
5166 365
5167 340
5168 309
5169 298
5170 253
5171 213
5172 173
5173 168
5174 151
5175 175
5176 183
5177 209
5178 229
5179 238
5180 261
5181 305
5182 341
5183 354
5184 374
5185 358
5186 356
5187 334
5188 304
5189 300
5190 253
5191 204
5192 150
5193 145
5194 138
5195 160
5196 181
5197 203
5198 214
5199 215
5200 264
5201 307
5202 361
5203 355
5204 370
5205 367
5206 340
5207 346
5208 309
5209 306
5210 243
5211 183
5212 134
5213 145
5214 149
5215 154
5216 172
5217 204
5218 254
5219 239
5220 267
5221 309
5222 352
5223 366
5224 373
5225 362
5226 349
5227 332
5228 298
5229 275
5230 236
5231 189
5232 163
5233 170
5234 158
5235 151
5236 165
5237 192
5238 222
5239 246
5240 273
5241 332
5242 339
5243 363
5244 361
5245 365
5246 333
5247 311
5248 277
5249 275
5250 252
5251 209
5252 185
5253 155
5254 150
5255 151
5256 160
5257 174
5258 208
5259 238
5260 268
5261 318
5262 345
5263 371
5264 370
5265 376
5266 359
5267 332
5268 291
5269 268
5270 252
5271 204
5272 180
5273 156
5274 142
5275 156
5276 170
5277 203
5278 192
5279 217
5280 250
5281 310
5282 330
5283 355
5284 383
5285 363
5286 360
5287 344
5288 293
5289 285
5290 244
5291 186
5292 177
5293 161
5294 138
5295 151
5296 156
5297 192
5298 229
5299 242
5300 269
5301 319
5302 365
5303 366
5304 377
5305 356
5306 361
5307 324
5308 293
5309 282
5310 241
5311 194
5312 158
5313 161
5314 140
5315 143
5316 144
5317 191
5318 205
5319 233
5320 254
5321 283
5322 330
5323 337
5324 371
5325 364
5326 352
5327 321
5328 290
5329 286
5330 259
5331 214
5332 167
5333 168
5334 147
5335 150
5336 158
5337 179
5338 215
5339 230
5340 253
5341 297
5342 343
5343 347
5344 371
5345 364
5346 347
5347 335
5348 278
5349 260
5350 232
5351 184
5352 150
5353 151
5354 134
5355 152
5356 157
5357 189
5358 212
5359 206
5360 255
5361 307
5362 344
5363 339
5364 333
5365 343
5366 342
5367 335
5368 283
5369 286
5370 240
5371 202
5372 169
5373 162
5374 150
5375 156
5376 163
5377 174
5378 217
5379 219
5380 266
5381 323
5382 344
5383 353
5384 355
5385 348
5386 334
5387 328
5388 285
5389 259
5390 225
5391 186
5392 153
5393 129
5394 147
5395 138
5396 161
5397 188
5398 230
5399 241
5400 264
5401 308
5402 343
5403 374
5404 360
5405 346
5406 330
5407 317
5408 291
5409 273
5410 258
5411 204
5412 178
5413 163
5414 138
5415 155
5416 164
5417 182
5418 223
5419 258
5420 269
5421 322
5422 366
5423 383
5424 378
5425 383
5426 379
5427 363
5428 341
5429 320
5430 312
5431 263
5432 247
5433 245
5434 239
5435 240
5436 233
5437 275
5438 285
5439 309
5440 323
5441 392
5442 445
5443 461
5444 470
5445 475
5446 498
5447 469
5448 448
5449 416
5450 392
5451 330
5452 278
5453 254
5454 231
5455 258
5456 235
5457 281
5458 300
5459 309
5460 332
5461 388
5462 412
5463 424
5464 422
5465 410
5466 401
5467 384
5468 342
5469 337
5470 329
5471 263
5472 212
5473 205
5474 176
5475 186
5476 171
5477 213
5478 233
5479 243
5480 259
5481 294
5482 333
5483 336
5484 362
5485 353
5486 343
5487 306
5488 259
5489 258
5490 232
5491 203
5492 147
5493 143
5494 120
5495 131
5496 117
5497 146
5498 184
5499 187
5500 225
5501 281
5502 325
5503 325
5504 345
5505 342
5506 333
5507 298
5508 272
5509 266
5510 231
5511 180
5512 124
5513 121
5514 117
5515 130
5516 132
5517 167
5518 207
5519 200
5520 235
5521 276
5522 313
5523 328
5524 344
5525 325
5526 318
5527 320
5528 256
5529 254
5530 221
5531 169
5532 140
5533 118
5534 102
5535 117
5536 133
5537 140
5538 197
5539 207
5540 246
5541 298
5542 327
5543 333
5544 346
5545 324
5546 309
5547 301
5548 259
5549 257
5550 241
5551 200
5552 157
5553 129
5554 128
5555 123
5556 150
5557 213
5558 284
5559 317
5560 389
5561 455
5562 530
5563 553
5564 579
5565 608
5566 588
5567 590
5568 603
5569 678
5570 712
5571 783
5572 893
5573 1008
5574 1096
5575 1167
5576 1228
5577 1253
5578 1379
5579 1450
5580 1520
5581 1575
5582 1567
5583 1502
5584 1425
5585 1304
5586 1186
5587 1015
5588 814
5589 663
5590 509
5591 381
5592 264
5593 157
5594 89
5595 38
5596 8
5597 -22
5598 -24
5599 24
5600 49
5601 115
5602 166
5603 195
5604 219
5605 256
5606 275
5607 293
5608 296
5609 289
5610 305
5611 257
5612 242
5613 229
5614 207
5615 222
5616 220
5617 251
5618 284
5619 307
5620 318
5621 367
5622 391
5623 406
5624 406
5625 396
5626 409
5627 381
5628 350
5629 319
5630 306
5631 243
5632 196
5633 193
5634 177
5635 213
5636 192
5637 223
5638 264
5639 286
5640 294
5641 341
5642 377
5643 398
5644 421
5645 415
5646 411
5647 371
5648 329
5649 330
5650 322
5651 265
5652 221
5653 228
5654 199
5655 207
5656 196
5657 227
5658 258
5659 267
5660 290
5661 341
5662 393
5663 410
5664 435
5665 422
5666 415
5667 393
5668 359
5669 329
5670 289
5671 256
5672 224
5673 233
5674 195
5675 205
5676 197
5677 244
5678 291
5679 279
5680 300
5681 361
5682 401
5683 425
5684 444
5685 425
5686 411
5687 385
5688 346
5689 331
5690 328
5691 292
5692 241
5693 239
5694 224
5695 247
5696 235
5697 238
5698 295
5699 290
5700 324
5701 359
5702 408
5703 420
5704 424
5705 411
5706 405
5707 398
5708 370
5709 367
5710 334
5711 290
5712 237
5713 225
5714 205
5715 212
5716 234
5717 255
5718 328
5719 324
5720 325
5721 390
5722 441
5723 454
5724 462
5725 462
5726 446
5727 436
5728 388
5729 385
5730 361
5731 314
5732 267
5733 252
5734 250
5735 257
5736 262
5737 266
5738 316
5739 333
5740 346
5741 409
5742 450
5743 469
5744 490
5745 511
5746 478
5747 475
5748 424
5749 419
5750 394
5751 322
5752 304
5753 276
5754 276
5755 282
5756 291
5757 318
5758 355
5759 371
5760 386
5761 462
5762 495
5763 521
5764 522
5765 496
5766 473
5767 476
5768 434
5769 415
5770 416
5771 357
5772 319
5773 302
5774 283
5775 309
5776 316
5777 350
5778 367
5779 369
5780 384
5781 463
5782 495
5783 528
5784 526
5785 518
5786 504
5787 492
5788 457
5789 422
5790 405
5791 370
5792 316
5793 286
5794 288
5795 320
5796 308
5797 352
5798 385
5799 421
5800 419
5801 471
5802 501
5803 526
5804 557
5805 549
5806 545
5807 505
5808 471
5809 448
5810 436
5811 377
5812 336
5813 322
5814 301
5815 327
5816 309
5817 338
5818 382
5819 403
5820 405
5821 457
5822 499
5823 518
5824 534
5825 515
5826 508
5827 495
5828 473
5829 472
5830 444
5831 387
5832 353
5833 329
5834 299
5835 314
5836 314
5837 343
5838 372
5839 392
5840 413
5841 436
5842 488
5843 484
5844 498
5845 492
5846 489
5847 477
5848 435
5849 419
5850 403
5851 358
5852 305
5853 274
5854 260
5855 285
5856 294
5857 319
5858 350
5859 353
5860 389
5861 441
5862 485
5863 492
5864 510
5865 509
5866 498
5867 459
5868 404
5869 400
5870 381
5871 340
5872 299
5873 266
5874 253
5875 263
5876 264
5877 279
5878 331
5879 341
5880 369
5881 411
5882 467
5883 480
5884 467
5885 462
5886 445
5887 423
5888 374
5889 370
5890 346
5891 280
5892 223
5893 220
5894 235
5895 235
5896 225
5897 239
5898 283
5899 293
5900 295
5901 352
5902 390
5903 411
5904 403
5905 406
5906 393
5907 389
5908 322
5909 308
5910 296
5911 239
5912 216
5913 182
5914 172
5915 175
5916 172
5917 192
5918 232
5919 243
5920 257
5921 294
5922 335
5923 349
5924 339
5925 360
5926 362
5927 347
5928 298
5929 267
5930 283
5931 213
5932 178
5933 121
5934 113
5935 123
5936 128
5937 170
5938 211
5939 225
5940 234
5941 288
5942 306
5943 356
5944 372
5945 343
5946 327
5947 304
5948 267
5949 251
5950 245
5951 195
5952 146
5953 132
5954 128
5955 133
5956 137
5957 176
5958 215
5959 221
5960 220
5961 259
5962 308
5963 323
5964 342
5965 335
5966 334
5967 317
5968 295
5969 274
5970 267
5971 182
5972 148
5973 127
5974 110
5975 117
5976 134
5977 177
5978 214
5979 216
5980 218
5981 273
5982 309
5983 327
5984 356
5985 340
5986 348
5987 324
5988 293
5989 273
5990 256
5991 205
5992 160
5993 143
5994 123
5995 133
5996 132
5997 163
5998 208
5999 232
6000 246
6001 296
6002 342
6003 348
6004 357
6005 353
6006 365
6007 348
6008 293
6009 298
6010 299
6011 211
6012 156
6013 141
6014 121
6015 120
6016 142
6017 150
6018 223
6019 219
6020 247
6021 301
6022 351
6023 347
6024 357
6025 335
6026 335
6027 330
6028 284
6029 278
6030 264
6031 219
6032 178
6033 140
6034 144
6035 151
6036 160
6037 181
6038 236
6039 247
6040 251
6041 288
6042 341
6043 359
6044 334
6045 340
6046 339
6047 330
6048 281
6049 279
6050 290
6051 217
6052 188
6053 137
6054 152
6055 146
6056 142
6057 159
6058 222
6059 232
6060 254
6061 321
6062 348
6063 366
6064 366
6065 374
6066 360
6067 359
6068 315
6069 283
6070 266
6071 216
6072 161
6073 135
6074 133
6075 135
6076 148
6077 164
6078 221
6079 247
6080 250
6081 309
6082 325
6083 365
6084 382
6085 368
6086 367
6087 329
6088 308
6089 284
6090 288
6091 210
6092 167
6093 148
6094 142
6095 161
6096 152
6097 159
6098 187
6099 224
6100 225
6101 282
6102 330
6103 352
6104 355
6105 349
6106 347
6107 334
6108 285
6109 260
6110 254
6111 203
6112 171
6113 139
6114 134
6115 139
6116 141
6117 160
6118 185
6119 195
6120 238
6121 296
6122 305
6123 320
6124 329
6125 307
6126 310
6127 290
6128 268
6129 256
6130 249
6131 180
6132 128
6133 114
6134 116
6135 132
6136 114
6137 136
6138 173
6139 187
6140 214
6141 261
6142 296
6143 305
6144 317
6145 320
6146 316
6147 288
6148 248
6149 249
6150 223
6151 165
6152 113
6153 121
6154 94
6155 98
6156 105
6157 108
6158 156
6159 175
6160 201
6161 261
6162 302
6163 310
6164 327
6165 310
6166 285
6167 282
6168 228
6169 225
6170 223
6171 175
6172 131
6173 104
6174 88
6175 71
6176 71
6177 101
6178 154
6179 144
6180 177
6181 243
6182 287
6183 326
6184 324
6185 320
6186 312
6187 280
6188 226
6189 226
6190 220
6191 172
6192 127
6193 106
6194 98
6195 88
6196 98
6197 109
6198 156
6199 169
6200 179
6201 235
6202 274
6203 308
6204 312
6205 308
6206 273
6207 270
6208 207
6209 204
6210 211
6211 144
6212 117
6213 84
6214 84
6215 78
6216 82
6217 89
6218 144
6219 152
6220 161
6221 223
6222 278
6223 311
6224 308
6225 306
6226 295
6227 263
6228 240
6229 227
6230 189
6231 118
6232 98
6233 77
6234 77
6235 91
6236 95
6237 114
6238 162
6239 164
6240 174
6241 243
6242 271
6243 306
6244 304
6245 310
6246 309
6247 268
6248 222
6249 220
6250 220
6251 139
6252 110
6253 84
6254 99
6255 86
6256 97
6257 122
6258 171
6259 187
6260 186
6261 236
6262 269
6263 298
6264 299
6265 278
6266 292
6267 266
6268 230
6269 207
6270 194
6271 143
6272 111
6273 98
6274 80
6275 98
6276 102
6277 115
6278 130
6279 151
6280 156
6281 211
6282 261
6283 294
6284 299
6285 285
6286 291
6287 266
6288 231
6289 234
6290 228
6291 135
6292 76
6293 84
6294 76
6295 89
6296 76
6297 95
6298 155
6299 165
6300 178
6301 229
6302 275
6303 281
6304 312
6305 310
6306 299
6307 273
6308 225
6309 219
6310 193
6311 138
6312 104
6313 94
6314 55
6315 98
6316 105
6317 121
6318 139
6319 170
6320 187
6321 227
6322 289
6323 291
6324 288
6325 279
6326 281
6327 268
6328 211
6329 214
6330 195
6331 144
6332 86
6333 63
6334 69
6335 75
6336 100
6337 111
6338 133
6339 145
6340 175
6341 229
6342 291
6343 304
6344 315
6345 295
6346 276
6347 283
6348 213
6349 204
6350 195
6351 123
6352 108
6353 90
6354 82
6355 45
6356 53
6357 88
6358 150
6359 157
6360 175
6361 241
6362 276
6363 291
6364 306
6365 296
6366 278
6367 265
6368 204
6369 203
6370 211
6371 131
6372 91
6373 56
6374 67
6375 37
6376 64
6377 63
6378 119
6379 147
6380 145
6381 203
6382 260
6383 296
6384 295
6385 304
6386 284
6387 275
6388 257
6389 238
6390 218
6391 154
6392 118
6393 79
6394 84
6395 84
6396 93
6397 120
6398 176
6399 185
6400 190
6401 264
6402 292
6403 325
6404 331
6405 338
6406 353
6407 326
6408 284
6409 274
6410 296
6411 237
6412 234
6413 214
6414 198
6415 200
6416 170
6417 206
6418 231
6419 246
6420 233
6421 300
6422 339
6423 357
6424 352
6425 362
6426 365
6427 320
6428 293
6429 278
6430 265
6431 210
6432 177
6433 138
6434 136
6435 138
6436 132
6437 149
6438 184
6439 201
6440 195
6441 223
6442 265
6443 293
6444 306
6445 285
6446 274
6447 260
6448 228
6449 189
6450 174
6451 123
6452 89
6453 41
6454 29
6455 43
6456 31
6457 51
6458 96
6459 134
6460 154
6461 196
6462 242
6463 261
6464 279
6465 259
6466 266
6467 256
6468 205
6469 184
6470 167
6471 123
6472 59
6473 52
6474 34
6475 43
6476 56
6477 74
6478 124
6479 106
6480 119
6481 167
6482 218
6483 244
6484 242
6485 259
6486 254
6487 235
6488 190
6489 173
6490 151
6491 90
6492 41
6493 29
6494 10
6495 26
6496 29
6497 52
6498 85
6499 101
6500 130
6501 198
6502 236
6503 261
6504 284
6505 268
6506 248
6507 250
6508 202
6509 200
6510 166
6511 79
6512 52
6513 43
6514 42
6515 36
6516 48
6517 55
6518 114
6519 125
6520 133
6521 175
6522 229
6523 245
6524 282
6525 328
6526 337
6527 385
6528 362
6529 346
6530 352
6531 323
6532 285
6533 259
6534 275
6535 315
6536 414
6537 501
6538 676
6539 805
6540 947
6541 1089
6542 1206
6543 1299
6544 1321
6545 1395
6546 1421
6547 1460
6548 1448
6549 1406
6550 1334
6551 1198
6552 1098
6553 938
6554 851
6555 689
6556 503
6557 387
6558 325
6559 273
6560 191
6561 199
6562 174
6563 164
6564 107
6565 100
6566 69
6567 62
6568 26
6569 -12
6570 -31
6571 -59
6572 -52
6573 -66
6574 -38
6575 12
6576 56
6577 106
6578 174
6579 223
6580 231
6581 300
6582 334
6583 351
6584 345
6585 337
6586 312
6587 303
6588 274
6589 253
6590 252
6591 182
6592 133
6593 119
6594 111
6595 108
6596 105
6597 141
6598 197
6599 196
6600 205
6601 263
6602 294
6603 313
6604 332
6605 326
6606 342
6607 318
6608 281
6609 270
6610 254
6611 201
6612 157
6613 110
6614 118
6615 136
6616 121
6617 140
6618 195
6619 189
6620 208
6621 266
6622 330
6623 347
6624 344
6625 335
6626 336
6627 311
6628 275
6629 272
6630 244
6631 179
6632 155
6633 133
6634 114
6635 139
6636 140
6637 145
6638 205
6639 216
6640 231
6641 278
6642 329
6643 360
6644 370
6645 372
6646 348
6647 347
6648 297
6649 272
6650 261
6651 224
6652 196
6653 164
6654 164
6655 149
6656 156
6657 167
6658 207
6659 202
6660 223
6661 277
6662 338
6663 397
6664 389
6665 375
6666 362
6667 352
6668 301
6669 296
6670 291
6671 240
6672 213
6673 186
6674 154
6675 150
6676 173
6677 182
6678 243
6679 238
6680 250
6681 302
6682 357
6683 399
6684 385
6685 378
6686 381
6687 359
6688 321
6689 308
6690 310
6691 250
6692 225
6693 168
6694 153
6695 161
6696 176
6697 193
6698 241
6699 250
6700 272
6701 341
6702 406
6703 425
6704 386
6705 405
6706 389
6707 372
6708 338
6709 317
6710 309
6711 261
6712 246
6713 211
6714 194
6715 190
6716 216
6717 255
6718 291
6719 291
6720 307
6721 376
6722 408
6723 436
6724 455
6725 452
6726 435
6727 418
6728 375
6729 354
6730 346
6731 290
6732 278
6733 270
6734 235
6735 241
6736 233
6737 257
6738 295
6739 317
6740 334
6741 376
6742 421
6743 460
6744 465
6745 460
6746 459
6747 435
6748 403
6749 389
6750 396
6751 327
6752 284
6753 283
6754 254
6755 260
6756 266
6757 276
6758 304
6759 333
6760 360
6761 423
6762 454
6763 479
6764 501
6765 486
6766 474
6767 450
6768 397
6769 393
6770 387
6771 339
6772 294
6773 275
6774 251
6775 259
6776 264
6777 297
6778 335
6779 349
6780 368
6781 423
6782 472
6783 501
6784 479
6785 460
6786 471
6787 470
6788 436
6789 417
6790 385
6791 331
6792 286
6793 257
6794 263
6795 263
6796 266
6797 277
6798 319
6799 296
6800 320
6801 372
6802 410
6803 455
6804 468
6805 454
6806 447
6807 437
6808 388
6809 379
6810 363
6811 310
6812 277
6813 240
6814 237
6815 222
6816 215
6817 236
6818 290
6819 311
6820 344
6821 391
6822 421
6823 454
6824 431
6825 420
6826 411
6827 412
6828 378
6829 372
6830 361
6831 284
6832 256
6833 217
6834 221
6835 209
6836 219
6837 207
6838 242
6839 282
6840 303
6841 355
6842 381
6843 414
6844 425
6845 429
6846 406
6847 403
6848 366
6849 341
6850 328
6851 270
6852 231
6853 188
6854 193
6855 194
6856 204
6857 218
6858 247
6859 248
6860 253
6861 324
6862 341
6863 381
6864 359
6865 362
6866 360
6867 331
6868 315
6869 277
6870 272
6871 202
6872 167
6873 152
6874 149
6875 155
6876 146
6877 162
6878 180
6879 199
6880 199
6881 284
6882 338
6883 335
6884 358
6885 342
6886 332
6887 320
6888 281
6889 239
6890 228
6891 186
6892 159
6893 146
6894 110
6895 100
6896 100
6897 122
6898 169
6899 186
6900 190
6901 249
6902 307
6903 334
6904 326
6905 315
6906 322
6907 266
6908 238
6909 219
6910 203
6911 146
6912 116
6913 104
6914 74
6915 80
6916 84
6917 100
6918 142
6919 160
6920 169
6921 232
6922 278
6923 288
6924 316
6925 318
6926 301
6927 290
6928 242
6929 239
6930 224
6931 171
6932 115
6933 108
6934 94
6935 101
6936 85
6937 102
6938 153
6939 169
6940 174
6941 218
6942 280
6943 320
6944 304
6945 306
6946 311
6947 300
6948 230
6949 232
6950 211
6951 157
6952 117
6953 113
6954 97
6955 99
6956 101
6957 121
6958 162
6959 198
6960 208
6961 262
6962 306
6963 340
6964 334
6965 338
6966 326
6967 330
6968 260
6969 250
6970 243
6971 205
6972 168
6973 127
6974 109
6975 96
6976 96
6977 124
6978 165
6979 190
6980 208
6981 256
6982 293
6983 336
6984 336
6985 346
6986 320
6987 336
6988 288
6989 282
6990 255
6991 209
6992 172
6993 122
6994 116
6995 111
6996 123
6997 144
6998 186
6999 201
7000 208
7001 266
7002 306
7003 340
7004 344
7005 356
7006 331
7007 322
7008 275
7009 246
7010 258
7011 205
7012 180
7013 124
7014 106
7015 106
7016 140
7017 144
7018 184
7019 214
7020 209
7021 264
7022 293
7023 351
7024 344
7025 340
7026 332
7027 299
7028 252
7029 250
7030 268
7031 198
7032 169
7033 131
7034 128
7035 125
7036 137
7037 142
7038 188
7039 226
7040 225
7041 283
7042 316
7043 339
7044 339
7045 327
7046 344
7047 307
7048 261
7049 229
7050 243
7051 187
7052 157
7053 129
7054 134
7055 120
7056 103
7057 135
7058 159
7059 171
7060 178
7061 239
7062 274
7063 316
7064 304
7065 291
7066 304
7067 310
7068 272
7069 238
7070 233
7071 174
7072 144
7073 101
7074 88
7075 104
7076 110
7077 125
7078 139
7079 172
7080 188
7081 239
7082 287
7083 319
7084 322
7085 306
7086 310
7087 280
7088 224
7089 213
7090 215
7091 174
7092 112
7093 68
7094 67
7095 83
7096 80
7097 96
7098 135
7099 167
7100 174
7101 225
7102 273
7103 285
7104 297
7105 285
7106 295
7107 282
7108 242
7109 240
7110 217
7111 160
7112 127
7113 107
7114 85
7115 66
7116 85
7117 82
7118 130
7119 137
7120 142
7121 208
7122 246
7123 278
7124 288
7125 295
7126 279
7127 264
7128 218
7129 206
7130 201
7131 160
7132 109
7133 94
7134 70
7135 64
7136 65
7137 76
7138 122
7139 129
7140 156
7141 202
7142 245
7143 281
7144 296
7145 274
7146 260
7147 253
7148 216
7149 178
7150 170
7151 135
7152 94
7153 65
7154 55
7155 64
7156 69
7157 68
7158 107
7159 118
7160 140
7161 197
7162 234
7163 291
7164 288
7165 299
7166 269
7167 265
7168 203
7169 180
7170 182
7171 123
7172 92
7173 62
7174 69
7175 55
7176 47
7177 47
7178 106
7179 139
7180 139
7181 192
7182 219
7183 246
7184 246
7185 265
7186 266
7187 246
7188 200
7189 161
7190 164
7191 110
7192 80
7193 55
7194 38
7195 32
7196 48
7197 66
7198 103
7199 131
7200 132
7201 201
7202 239
7203 252
7204 255
7205 261
7206 258
7207 231
7208 193
7209 162
7210 176
7211 116
7212 87
7213 51
7214 51
7215 39
7216 39
7217 53
7218 114
7219 134
7220 134
7221 193
7222 230
7223 251
7224 255
7225 238
7226 247
7227 235
7228 194
7229 172
7230 177
7231 126
7232 67
7233 39
7234 33
7235 15
7236 17
7237 34
7238 87
7239 115
7240 142
7241 185
7242 234
7243 257
7244 266
7245 264
7246 253
7247 225
7248 191
7249 190
7250 167
7251 116
7252 62
7253 37
7254 20
7255 41
7256 42
7257 43
7258 96
7259 114
7260 142
7261 184
7262 231
7263 263
7264 256
7265 263
7266 249
7267 247
7268 198
7269 167
7270 154
7271 122
7272 70
7273 39
7274 21
7275 20
7276 50
7277 53
7278 107
7279 112
7280 123
7281 181
7282 242
7283 261
7284 246
7285 262
7286 252
7287 253
7288 214
7289 198
7290 164
7291 87
7292 78
7293 40
7294 51
7295 60
7296 40
7297 22
7298 95
7299 99
7300 114
7301 167
7302 207
7303 251
7304 247
7305 256
7306 245
7307 228
7308 184
7309 167
7310 156
7311 104
7312 88
7313 35
7314 24
7315 23
7316 38
7317 42
7318 107
7319 123
7320 131
7321 195
7322 226
7323 258
7324 259
7325 252
7326 240
7327 232
7328 213
7329 196
7330 176
7331 101
7332 57
7333 35
7334 42
7335 24
7336 37
7337 54
7338 89
7339 129
7340 125
7341 182
7342 220
7343 240
7344 236
7345 242
7346 247
7347 228
7348 216
7349 197
7350 183
7351 93
7352 58
7353 51
7354 30
7355 42
7356 30
7357 43
7358 107
7359 112
7360 113
7361 180
7362 234
7363 257
7364 256
7365 241
7366 255
7367 232
7368 216
7369 187
7370 143
7371 96
7372 73
7373 58
7374 36
7375 49
7376 47
7377 61
7378 103
7379 118
7380 138
7381 187
7382 229
7383 249
7384 269
7385 254
7386 251
7387 221
7388 185
7389 196
7390 210
7391 145
7392 111
7393 86
7394 87
7395 98
7396 111
7397 92
7398 149
7399 170
7400 191
7401 248
7402 311
7403 334
7404 341
7405 340
7406 375
7407 382
7408 352
7409 346
7410 313
7411 260
7412 205
7413 157
7414 135
7415 123
7416 136
7417 131
7418 194
7419 214
7420 237
7421 272
7422 313
7423 326
7424 324
7425 321
7426 299
7427 296
7428 251
7429 254
7430 245
7431 198
7432 139
7433 92
7434 92
7435 74
7436 93
7437 83
7438 118
7439 128
7440 123
7441 178
7442 232
7443 271
7444 257
7445 265
7446 242
7447 242
7448 177
7449 163
7450 157
7451 111
7452 74
7453 36
7454 45
7455 44
7456 52
7457 29
7458 90
7459 103
7460 118
7461 177
7462 216
7463 254
7464 249
7465 262
7466 247
7467 218
7468 162
7469 146
7470 156
7471 95
7472 84
7473 53
7474 31
7475 22
7476 47
7477 40
7478 88
7479 93
7480 99
7481 168
7482 194
7483 238
7484 246
7485 242
7486 242
7487 219
7488 174
7489 166
7490 159
7491 74
7492 39
7493 24
7494 30
7495 6
7496 15
7497 48
7498 104
7499 111
7500 105
7501 167
7502 222
7503 219
7504 211
7505 211
7506 220
7507 220
7508 190
7509 177
7510 174
7511 109
7512 49
7513 22
7514 4
7515 16
7516 50
7517 85
7518 147
7519 203
7520 236
7521 329
7522 387
7523 446
7524 474
7525 486
7526 515
7527 496
7528 476
7529 510
7530 582
7531 585
7532 649
7533 764
7534 866
7535 954
7536 1034
7537 1112
7538 1173
7539 1270
7540 1347
7541 1459
7542 1505
7543 1471
7544 1387
7545 1313
7546 1201
7547 1082
7548 905
7549 697
7550 550
7551 369
7552 233
7553 136
7554 31
7555 -20
7556 -42
7557 -98
7558 -95
7559 -91
7560 -63
7561 -7
7562 47
7563 90
7564 113
7565 151
7566 176
7567 195
7568 179
7569 196
7570 204
7571 186
7572 146
7573 115
7574 115
7575 115
7576 131
7577 141
7578 184
7579 188
7580 218
7581 268
7582 302
7583 336
7584 329
7585 336
7586 320
7587 313
7588 257
7589 259
7590 233
7591 184
7592 136
7593 114
7594 115
7595 89
7596 131
7597 114
7598 185
7599 201
7600 192
7601 257
7602 282
7603 307
7604 328
7605 354
7606 349
7607 333
7608 280
7609 257
7610 246
7611 171
7612 141
7613 115
7614 130
7615 130
7616 152
7617 146
7618 187
7619 196
7620 215
7621 276
7622 322
7623 361
7624 353
7625 342
7626 338
7627 330
7628 285
7629 266
7630 261
7631 209
7632 170
7633 125
7634 134
7635 115
7636 160
7637 156
7638 192
7639 238
7640 229
7641 277
7642 309
7643 367
7644 354
7645 353
7646 344
7647 339
7648 305
7649 281
7650 302
7651 228
7652 195
7653 152
7654 153
7655 155
7656 150
7657 171
7658 208
7659 243
7660 251
7661 300
7662 333
7663 368
7664 384
7665 385
7666 393
7667 376
7668 343
7669 295
7670 302
7671 244
7672 193
7673 162
7674 156
7675 173
7676 196
7677 197
7678 252
7679 276
7680 268
7681 330
7682 361
7683 392
7684 414
7685 394
7686 399
7687 397
7688 364
7689 339
7690 313
7691 273
7692 255
7693 237
7694 220
7695 236
7696 248
7697 244
7698 280
7699 282
7700 305
7701 362
7702 419
7703 423
7704 423
7705 431
7706 433
7707 427
7708 379
7709 353
7710 363
7711 314
7712 256
7713 244
7714 248
7715 242
7716 260
7717 249
7718 292
7719 307
7720 331
7721 375
7722 427
7723 464
7724 470
7725 472
7726 469
7727 454
7728 395
7729 374
7730 359
7731 324
7732 304
7733 272
7734 268
7735 248
7736 260
7737 273
7738 350
7739 366
7740 353
7741 403
7742 428
7743 484
7744 489
7745 504
7746 493
7747 488
7748 428
7749 409
7750 399
7751 346
7752 317
7753 290
7754 308
7755 274
7756 285
7757 297
7758 350
7759 378
7760 369
7761 422
7762 455
7763 494
7764 496
7765 493
7766 486
7767 490
7768 441
7769 420
7770 404
7771 349
7772 332
7773 298
7774 308
7775 307
7776 298
7777 301
7778 348
7779 373
7780 372
7781 442
7782 474
7783 507
7784 492
7785 495
7786 509
7787 492
7788 445
7789 403
7790 407
7791 353
7792 321
7793 292
7794 286
7795 295
7796 294
7797 298
7798 314
7799 343
7800 337
7801 398
7802 430
7803 459
7804 470
7805 472
7806 498
7807 469
7808 420
7809 383
7810 394
7811 365
7812 308
7813 271
7814 259
7815 266
7816 261
7817 290
7818 317
7819 342
7820 349
7821 394
7822 428
7823 449
7824 457
7825 443
7826 455
7827 453
7828 421
7829 389
7830 387
7831 337
7832 299
7833 278
7834 244
7835 250
7836 241
7837 223
7838 271
7839 294
7840 308
7841 366
7842 395
7843 414
7844 433
7845 429
7846 442
7847 435
7848 385
7849 372
7850 352
7851 302
7852 261
7853 236
7854 218
7855 210
7856 203
7857 197
7858 254
7859 262
7860 272
7861 325
7862 359
7863 392
7864 407
7865 407
7866 388
7867 386
7868 324
7869 308
7870 291
7871 244
7872 195
7873 165
7874 176
7875 158
7876 170
7877 160
7878 202
7879 207
7880 235
7881 297
7882 325
7883 353
7884 356
7885 368
7886 362
7887 348
7888 296
7889 280
7890 268
7891 211
7892 177
7893 144
7894 137
7895 134
7896 149
7897 162
7898 181
7899 209
7900 201
7901 247
7902 278
7903 312
7904 314
7905 331
7906 325
7907 320
7908 289
7909 258
7910 244
7911 176
7912 155
7913 134
7914 124
7915 124
7916 121
7917 134
7918 175
7919 192
7920 196
7921 283
7922 315
7923 334
7924 341
7925 349
7926 345
7927 319
7928 289
7929 267
7930 270
7931 216
7932 163
7933 127
7934 128
7935 117
7936 117
7937 153
7938 190
7939 210
7940 231
7941 292
7942 319
7943 337
7944 350
7945 338
7946 330
7947 313
7948 289
7949 257
7950 266
7951 220
7952 161
7953 124
7954 132
7955 137
7956 161
7957 174
7958 214
7959 230
7960 243
7961 292
7962 338
7963 348
7964 346
7965 359
7966 347
7967 336
7968 311
7969 296
7970 277
7971 237
7972 176
7973 162
7974 174
7975 160
7976 170
7977 175
7978 207
7979 227
7980 241
7981 291
7982 345
7983 360
7984 365
7985 369
7986 357
7987 361
7988 323
7989 309
7990 289
7991 230
7992 192
7993 173
7994 170
7995 167
7996 199
7997 199
7998 236
7999 245
8000 245
8001 309
8002 344
8003 370
8004 371
8005 380
8006 357
8007 366
8008 320
8009 304
8010 314
8011 258
8012 206
8013 176
8014 180
8015 151
8016 153
8017 166
8018 226
8019 251
8020 265
8021 313
8022 333
8023 368
8024 375
8025 394
8026 394
8027 376
8028 334
8029 317
8030 300
8031 249
8032 208
8033 174
8034 175
8035 179
8036 187
8037 208
8038 228
8039 252
8040 256
8041 313
8042 355
8043 383
8044 373
8045 362
8046 370
8047 353
8048 331
8049 313
8050 300
8051 224
8052 184
8053 139
8054 136
8055 145
8056 147
8057 163
8058 208
8059 246
8060 247
8061 302
8062 353
8063 382
8064 383
8065 377
8066 375
8067 351
8068 325
8069 309
8070 307
8071 242
8072 184
8073 154
8074 146
8075 143
8076 149
8077 154
8078 212
8079 210
8080 235
8081 273
8082 302
8083 336
8084 368
8085 359
8086 358
8087 341
8088 303
8089 306
8090 272
8091 217
8092 158
8093 144
8094 115
8095 108
8096 127
8097 151
8098 214
8099 233
8100 250
8101 287
8102 319
8103 316
8104 347
8105 372
8106 361
8107 356
8108 317
8109 294
8110 266
8111 208
8112 157
8113 139
8114 151
8115 138
8116 148
8117 155
8118 218
8119 221
8120 233
8121 275
8122 309
8123 340
8124 346
8125 353
8126 348
8127 355
8128 293
8129 303
8130 273
8131 223
8132 174
8133 136
8134 136
8135 143
8136 152
8137 144
8138 192
8139 223
8140 225
8141 276
8142 316
8143 345
8144 340
8145 339
8146 316
8147 304
8148 280
8149 261
8150 276
8151 203
8152 158
8153 116
8154 115
8155 121
8156 130
8157 122
8158 168
8159 194
8160 208
8161 262
8162 301
8163 336
8164 340
8165 341
8166 333
8167 335
8168 313
8169 290
8170 274
8171 218
8172 159
8173 130
8174 143
8175 125
8176 119
8177 162
8178 197
8179 213
8180 209
8181 275
8182 324
8183 342
8184 340
8185 317
8186 329
8187 327
8188 310
8189 275
8190 255
8191 194
8192 147
8193 122
8194 108
8195 115
8196 116
8197 133
8198 173
8199 196
8200 201
8201 246
8202 307
8203 329
8204 340
8205 331
8206 327
8207 317
8208 291
8209 280
8210 259
8211 211
8212 185
8213 148
8214 134
8215 137
8216 129
8217 136
8218 198
8219 202
8220 223
8221 259
8222 304
8223 315
8224 337
8225 338
8226 348
8227 329
8228 278
8229 272
8230 266
8231 211
8232 154
8233 120
8234 104
8235 112
8236 131
8237 140
8238 186
8239 190
8240 219
8241 256
8242 297
8243 315
8244 332
8245 341
8246 322
8247 326
8248 276
8249 265
8250 249
8251 201
8252 174
8253 136
8254 133
8255 92
8256 118
8257 112
8258 156
8259 170
8260 192
8261 252
8262 288
8263 314
8264 316
8265 325
8266 317
8267 327
8268 281
8269 262
8270 260
8271 214
8272 167
8273 122
8274 123
8275 107
8276 130
8277 131
8278 183
8279 209
8280 211
8281 263
8282 279
8283 308
8284 326
8285 342
8286 323
8287 318
8288 291
8289 264
8290 261
8291 200
8292 166
8293 115
8294 99
8295 81
8296 101
8297 116
8298 160
8299 186
8300 179
8301 238
8302 280
8303 303
8304 313
8305 323
8306 326
8307 318
8308 281
8309 253
8310 258
8311 190
8312 170
8313 146
8314 144
8315 119
8316 103
8317 112
8318 143
8319 192
8320 194
8321 248
8322 296
8323 325
8324 319
8325 314
8326 333
8327 309
8328 280
8329 252
8330 248
8331 204
8332 137
8333 114
8334 109
8335 103
8336 97
8337 118
8338 163
8339 196
8340 205
8341 252
8342 297
8343 311
8344 322
8345 341
8346 322
8347 311
8348 275
8349 251
8350 251
8351 183
8352 131
8353 140
8354 128
8355 117
8356 118
8357 114
8358 174
8359 174
8360 190
8361 238
8362 305
8363 316
8364 340
8365 324
8366 324
8367 321
8368 257
8369 257
8370 221
8371 184
8372 153
8373 119
8374 101
8375 101
8376 124
8377 127
8378 175
8379 179
8380 214
8381 242
8382 290
8383 309
8384 312
8385 334
8386 323
8387 336
8388 295
8389 279
8390 260
8391 208
8392 166
8393 120
8394 100
8395 74
8396 102
8397 102
8398 176
8399 197
8400 212
8401 252
8402 295
8403 327
8404 319
8405 343
8406 341
8407 332
8408 268
8409 262
8410 239
8411 195
8412 148
8413 118
8414 140
8415 138
8416 165
8417 172
8418 205
8419 222
8420 237
8421 304
8422 344
8423 395
8424 395
8425 421
8426 404
8427 395
8428 368
8429 359
8430 381
8431 329
8432 285
8433 257
8434 269
8435 235
8436 225
8437 212
8438 230
8439 259
8440 289
8441 340
8442 364
8443 402
8444 386
8445 391
8446 386
8447 378
8448 353
8449 323
8450 327
8451 262
8452 229
8453 184
8454 179
8455 168
8456 181
8457 193
8458 225
8459 236
8460 225
8461 258
8462 306
8463 332
8464 323
8465 318
8466 325
8467 316
8468 278
8469 249
8470 245
8471 185
8472 122
8473 102
8474 81
8475 77
8476 87
8477 116
8478 162
8479 170
8480 192
8481 233
8482 277
8483 291
8484 298
8485 314
8486 302
8487 289
8488 252
8489 237
8490 234
8491 189
8492 141
8493 105
8494 94
8495 94
8496 100
8497 115
8498 153
8499 179
8500 179
8501 226
8502 274
8503 291
8504 306
8505 308
8506 301
8507 298
8508 255
8509 228
8510 216
8511 156
8512 116
8513 109
8514 89
8515 95
8516 77
8517 108
8518 135
8519 146
8520 176
8521 210
8522 264
8523 301
8524 308
8525 310
8526 289
8527 289
8528 255
8529 240
8530 234
8531 190
8532 154
8533 125
8534 107
8535 103
8536 103
8537 85
8538 148
8539 181
8540 207
8541 256
8542 339
8543 413
8544 435
8545 454
8546 458
8547 479
8548 448
8549 431
8550 423
8551 396
8552 395
8553 445
8554 508
8555 609
8556 746
8557 864
8558 1004
8559 1081
8560 1133
8561 1192
8562 1291
8563 1374
8564 1450
8565 1503
8566 1464
8567 1414
8568 1277
8569 1204
8570 1096
8571 955
8572 802
8573 576
8574 463
8575 315
8576 268
8577 203
8578 160
8579 145
8580 99
8581 124
8582 118
8583 139
8584 148
8585 171
8586 149
8587 129
8588 81
8589 74
8590 104
8591 65
8592 67
8593 54
8594 84
8595 93
8596 135
8597 159
8598 216
8599 259
8600 256
8601 315
8602 353
8603 381
8604 360
8605 372
8606 386
8607 363
8608 330
8609 309
8610 312
8611 254
8612 212
8613 162
8614 148
8615 142
8616 162
8617 162
8618 214
8619 267
8620 240
8621 291
8622 324
8623 364
8624 373
8625 391
8626 397
8627 385
8628 354
8629 294
8630 297
8631 254
8632 237
8633 219
8634 209
8635 203
8636 170
8637 183
8638 238
8639 268
8640 265
8641 294
8642 327
8643 371
8644 380
8645 396
8646 401
8647 389
8648 367
8649 328
8650 317
8651 283
8652 229
8653 217
8654 213
8655 205
8656 178
8657 193
8658 230
8659 273
8660 288
8661 344
8662 387
8663 400
8664 395
8665 400
8666 406
8667 395
8668 366
8669 339
8670 333
8671 285
8672 231
8673 210
8674 224
8675 209
8676 203
8677 236
8678 274
8679 291
8680 304
8681 346
8682 402
8683 414
8684 420
8685 422
8686 418
8687 401
8688 367
8689 359
8690 337
8691 280
8692 219
8693 220
8694 220
8695 232
8696 249
8697 246
8698 285
8699 297
8700 300
8701 323
8702 382
8703 424
8704 441
8705 453
8706 445
8707 434
8708 403
8709 398
8710 368
8711 333
8712 286
8713 246
8714 247
8715 237
8716 253
8717 256
8718 317
8719 325
8720 335
8721 373
8722 419
8723 452
8724 450
8725 472
8726 473
8727 468
8728 426
8729 399
8730 368
8731 333
8732 304
8733 286
8734 279
8735 259
8736 269
8737 280
8738 324
8739 344
8740 358
8741 411
8742 457
8743 497
8744 476
8745 510
8746 490
8747 493
8748 437
8749 410
8750 399
8751 365
8752 334
8753 281
8754 298
8755 285
8756 297
8757 299
8758 335
8759 376
8760 398
8761 430
8762 481
8763 533
8764 532
8765 548
8766 525
8767 518
8768 476
8769 460
8770 450
8771 381
8772 351
8773 310
8774 302
8775 297
8776 324
8777 331
8778 361
8779 398
8780 403
8781 452
8782 510
8783 537
8784 535
8785 540
8786 523
8787 501
8788 470
8789 427
8790 428
8791 380
8792 359
8793 326
8794 314
8795 321
8796 329
8797 339
8798 357
8799 386
8800 384
8801 447
8802 493
8803 524
8804 522
8805 524
8806 524
8807 524
8808 504
8809 447
8810 436
8811 400
8812 353
8813 325
8814 328
8815 329
8816 319
8817 312
8818 343
8819 374
8820 373
8821 417
8822 468
8823 481
8824 499
8825 501
8826 501
8827 484
8828 461
8829 423
8830 421
8831 372
8832 327
8833 306
8834 289
8835 301
8836 305
8837 320
8838 351
8839 380
8840 379
8841 406
8842 452
8843 482
8844 486
8845 491
8846 488
8847 462
8848 418
8849 410
8850 404
8851 373
8852 316
8853 280
8854 255
8855 252
8856 267
8857 273
8858 303
8859 328
8860 336
8861 364
8862 429
8863 437
8864 463
8865 476
8866 474
8867 459
8868 420
8869 393
8870 375
8871 342
8872 275
8873 248
8874 247
8875 243
8876 245
8877 248
8878 271
8879 290
8880 308
8881 350
8882 398
8883 419
8884 405
8885 422
8886 416
8887 412
8888 375
8889 340
8890 322
8891 274
8892 248
8893 205
8894 212
8895 198
8896 213
8897 201
8898 237
8899 242
8900 256
8901 307
8902 353
8903 360
8904 370
8905 403
8906 381
8907 371
8908 307
8909 298
8910 277
8911 240
8912 202
8913 152
8914 164
8915 150
8916 158
8917 151
8918 204
8919 232
8920 239
8921 285
8922 321
8923 372
8924 366
8925 373
8926 367
8927 355
8928 314
8929 275
8930 292
8931 225
8932 185
8933 140
8934 146
8935 133
8936 140
8937 154
8938 190
8939 219
8940 213
8941 262
8942 318
8943 335
8944 335
8945 358
8946 338
8947 327
8948 308
8949 278
8950 277
8951 220
8952 174
8953 148
8954 135
8955 129
8956 149
8957 180
8958 206
8959 228
8960 227
8961 280
8962 310
8963 349
8964 355
8965 347
8966 364
8967 344
8968 318
8969 287
8970 270
8971 226
8972 182
8973 148
8974 158
8975 157
8976 155
8977 164
8978 169
8979 206
8980 229
8981 279
8982 359
8983 359
8984 360
8985 353
8986 351
8987 351
8988 336
8989 314
8990 305
8991 255
8992 205
8993 184
8994 163
8995 157
8996 165
8997 180
8998 219
8999 244
9000 247
9001 297
9002 356
9003 379
9004 373
9005 378
9006 365
9007 358
9008 322
9009 300
9010 306
9011 278
9012 209
9013 186
9014 166
9015 151
9016 163
9017 171
9018 205
9019 225
9020 237
9021 275
9022 342
9023 358
9024 377
9025 378
9026 390
9027 400
9028 340
9029 315
9030 291
9031 265
9032 209
9033 185
9034 194
9035 171
9036 190
9037 184
9038 223
9039 241
9040 246
9041 286
9042 331
9043 351
9044 342
9045 379
9046 377
9047 387
9048 344
9049 317
9050 298
9051 263
9052 212
9053 166
9054 151
9055 140
9056 163
9057 177
9058 221
9059 248
9060 249
9061 275
9062 320
9063 347
9064 360
9065 395
9066 374
9067 366
9068 320
9069 300
9070 296
9071 235
9072 215
9073 166
9074 168
9075 140
9076 150
9077 150
9078 196
9079 239
9080 242
9081 289
9082 317
9083 371
9084 374
9085 384
9086 376
9087 348
9088 315
9089 273
9090 273
9091 224
9092 189
9093 148
9094 124
9095 123
9096 140
9097 163
9098 193
9099 242
9100 235
9101 258
9102 314
9103 333
9104 353
9105 358
9106 361
9107 328
9108 312
9109 282
9110 269
9111 218
9112 177
9113 162
9114 145
9115 116
9116 124
9117 136
9118 157
9119 203
9120 221
9121 268
9122 304
9123 316
9124 326
9125 337
9126 346
9127 331
9128 300
9129 266
9130 247
9131 217
9132 169
9133 149
9134 141
9135 140
9136 127
9137 136
9138 182
9139 184
9140 206
9141 245
9142 312
9143 320
9144 330
9145 326
9146 328
9147 330
9148 293
9149 269
9150 241
9151 194
9152 151
9153 129
9154 134
9155 107
9156 116
9157 122
9158 164
9159 181
9160 186
9161 234
9162 280
9163 319
9164 330
9165 346
9166 324
9167 335
9168 283
9169 265
9170 261
9171 212
9172 166
9173 110
9174 106
9175 87
9176 114
9177 123
9178 157
9179 168
9180 188
9181 234
9182 275
9183 300
9184 296
9185 323
9186 301
9187 313
9188 285
9189 233
9190 238
9191 190
9192 153
9193 103
9194 109
9195 86
9196 107
9197 114
9198 162
9199 202
9200 209
9201 249
9202 282
9203 330
9204 325
9205 330
9206 323
9207 290
9208 278
9209 225
9210 232
9211 182
9212 166
9213 135
9214 122
9215 94
9216 85
9217 105
9218 134
9219 171
9220 191
9221 235
9222 282
9223 312
9224 325
9225 327
9226 328
9227 306
9228 282
9229 257
9230 234
9231 184
9232 132
9233 112
9234 99
9235 103
9236 99
9237 105
9238 142
9239 172
9240 184
9241 222
9242 283
9243 299
9244 319
9245 333
9246 336
9247 316
9248 282
9249 257
9250 234
9251 190
9252 134
9253 106
9254 101
9255 99
9256 111
9257 108
9258 159
9259 175
9260 192
9261 219
9262 269
9263 296
9264 289
9265 323
9266 326
9267 323
9268 277
9269 242
9270 220
9271 183
9272 142
9273 116
9274 117
9275 106
9276 125
9277 113
9278 156
9279 178
9280 193
9281 245
9282 273
9283 293
9284 267
9285 297
9286 293
9287 304
9288 268
9289 234
9290 238
9291 187
9292 163
9293 118
9294 111
9295 82
9296 95
9297 116
9298 147
9299 181
9300 177
9301 239
9302 275
9303 308
9304 303
9305 324
9306 306
9307 307
9308 288
9309 239
9310 243
9311 189
9312 142
9313 97
9314 96
9315 71
9316 75
9317 120
9318 150
9319 179
9320 192
9321 242
9322 271
9323 296
9324 317
9325 333
9326 330
9327 291
9328 272
9329 230
9330 236
9331 214
9332 172
9333 123
9334 105
9335 71
9336 76
9337 96
9338 130
9339 166
9340 178
9341 227
9342 279
9343 279
9344 303
9345 313
9346 322
9347 300
9348 269
9349 235
9350 214
9351 186
9352 124
9353 106
9354 114
9355 118
9356 110
9357 102
9358 145
9359 171
9360 176
9361 216
9362 268
9363 288
9364 295
9365 320
9366 303
9367 285
9368 252
9369 229
9370 213
9371 184
9372 119
9373 90
9374 86
9375 94
9376 106
9377 100
9378 143
9379 170
9380 179
9381 220
9382 246
9383 285
9384 285
9385 323
9386 294
9387 301
9388 257
9389 223
9390 221
9391 188
9392 137
9393 85
9394 95
9395 86
9396 82
9397 88
9398 135
9399 184
9400 178
9401 230
9402 277
9403 312
9404 308
9405 318
9406 319
9407 311
9408 284
9409 248
9410 259
9411 203
9412 171
9413 122
9414 110
9415 102
9416 121
9417 134
9418 160
9419 220
9420 218
9421 266
9422 318
9423 360
9424 372
9425 388
9426 387
9427 377
9428 359
9429 330
9430 330
9431 312
9432 293
9433 254
9434 248
9435 247
9436 235
9437 237
9438 252
9439 281
9440 251
9441 276
9442 317
9443 361
9444 380
9445 376
9446 380
9447 375
9448 347
9449 310
9450 298
9451 269
9452 205
9453 179
9454 152
9455 137
9456 140
9457 149
9458 184
9459 189
9460 204
9461 233
9462 274
9463 287
9464 294
9465 288
9466 296
9467 291
9468 270
9469 230
9470 219
9471 173
9472 96
9473 62
9474 73
9475 67
9476 56
9477 75
9478 124
9479 146
9480 166
9481 201
9482 246
9483 273
9484 288
9485 281
9486 266
9487 282
9488 246
9489 222
9490 205
9491 159
9492 108
9493 91
9494 85
9495 43
9496 50
9497 52
9498 94
9499 141
9500 157
9501 190
9502 232
9503 263
9504 259
9505 294
9506 273
9507 269
9508 227
9509 208
9510 199
9511 154
9512 125
9513 81
9514 85
9515 74
9516 73
9517 58
9518 103
9519 132
9520 128
9521 191
9522 228
9523 260
9524 263
9525 276
9526 259
9527 239
9528 241
9529 208
9530 205
9531 159
9532 98
9533 64
9534 70
9535 56
9536 59
9537 66
9538 89
9539 122
9540 118
9541 186
9542 234
9543 291
9544 342
9545 386
9546 412
9547 440
9548 434
9549 422
9550 422
9551 393
9552 343
9553 324
9554 355
9555 417
9556 484
9557 601
9558 732
9559 897
9560 1016
9561 1161
9562 1253
9563 1308
9564 1360
9565 1418
9566 1479
9567 1523
9568 1494
9569 1403
9570 1304
9571 1218
9572 1047
9573 913
9574 730
9575 568
9576 460
9577 333
9578 290
9579 220
9580 154
9581 134
9582 150
9583 154
9584 110
9585 106
9586 98
9587 97
9588 50
9589 41
9590 60
9591 52
9592 17
9593 20
9594 38
9595 71
9596 106
9597 135
9598 205
9599 224
9600 235
9601 291
9602 333
9603 369
9604 373
9605 400
9606 384
9607 363
9608 308
9609 275
9610 262
9611 217
9612 177
9613 154
9614 156
9615 123
9616 138
9617 153
9618 177
9619 211
9620 220
9621 276
9622 305
9623 338
9624 341
9625 377
9626 371
9627 358
9628 321
9629 282
9630 280
9631 237
9632 202
9633 158
9634 139
9635 156
9636 134
9637 157
9638 177
9639 213
9640 214
9641 272
9642 323
9643 360
9644 353
9645 364
9646 362
9647 349
9648 331
9649 299
9650 282
9651 249
9652 217
9653 184
9654 165
9655 143
9656 148
9657 167
9658 194
9659 224
9660 241
9661 276
9662 325
9663 359
9664 379
9665 393
9666 385
9667 369
9668 350
9669 316
9670 303
9671 293
9672 241
9673 213
9674 184
9675 197
9676 185
9677 200
9678 233
9679 251
9680 262
9681 289
9682 353
9683 372
9684 385
9685 401
9686 403
9687 393
9688 358
9689 330
9690 301
9691 289
9692 233
9693 216
9694 197
9695 188
9696 218
9697 214
9698 257
9699 290
9700 303
9701 320
9702 363
9703 381
9704 397
9705 424
9706 414
9707 408
9708 374
9709 350
9710 330
9711 300
9712 256
9713 220
9714 228
9715 246
9716 238
9717 239
9718 267
9719 309
9720 304
9721 318
9722 376
9723 415
9724 403
9725 448
9726 444
9727 448
9728 421
9729 409
9730 411
9731 360
9732 317
9733 266
9734 259
9735 240
9736 248
9737 258
9738 275
9739 315
9740 353
9741 384
9742 415
9743 450
9744 462
9745 467
9746 445
9747 442
9748 418
9749 397
9750 402
9751 363
9752 338
9753 296
9754 302
9755 286
9756 278
9757 293
9758 318
9759 364
9760 362
9761 407
9762 446
9763 466
9764 484
9765 511
9766 514
9767 487
9768 461
9769 419
9770 426
9771 383
9772 318
9773 295
9774 290
9775 290
9776 281
9777 305
9778 325
9779 367
9780 390
9781 422
9782 481
9783 487
9784 499
9785 513
9786 506
9787 488
9788 467
9789 443
9790 428
9791 372
9792 332
9793 322
9794 325
9795 314
9796 310
9797 329
9798 356
9799 368
9800 365
9801 405
9802 476
9803 505
9804 511
9805 503
9806 506
9807 503
9808 467
9809 447
9810 419
9811 402
9812 349
9813 323
9814 309
9815 266
9816 291
9817 297
9818 329
9819 351
9820 374
9821 406
9822 448
9823 467
9824 487
9825 514
9826 495
9827 485
9828 441
9829 409
9830 402
9831 366
9832 330
9833 283
9834 278
9835 267
9836 273
9837 266
9838 314
9839 334
9840 334
9841 372
9842 417
9843 461
9844 445
9845 471
9846 457
9847 449
9848 414
9849 381
9850 373
9851 328
9852 292
9853 262
9854 265
9855 232
9856 248
9857 244
9858 263
9859 300
9860 309
9861 349
9862 393
9863 430
9864 429
9865 454
9866 433
9867 419
9868 410
9869 351
9870 347
9871 302
9872 268
9873 231
9874 232
9875 230
9876 216
9877 223
9878 247
9879 284
9880 266
9881 303
9882 352
9883 396
9884 409
9885 404
9886 376
9887 371
9888 367
9889 315
9890 304
9891 262
9892 215
9893 163
9894 163
9895 161
9896 175
9897 205
9898 202
9899 229
9900 245
9901 261
9902 307
9903 328
9904 331
9905 356
9906 367
9907 343
9908 323
9909 285
9910 281
9911 243
9912 192
9913 152
9914 139
9915 132
9916 121
9917 116
9918 170
9919 197
9920 188
9921 227
9922 288
9923 298
9924 326
9925 342
9926 340
9927 327
9928 304
9929 261
9930 230
9931 200
9932 136
9933 99
9934 101
9935 117
9936 113
9937 118
9938 151
9939 179
9940 181
9941 213
9942 287
9943 301
9944 319
9945 343
9946 320
9947 322
9948 276
9949 244
9950 214
9951 191
9952 145
9953 123
9954 116
9955 106
9956 101
9957 105
9958 134
9959 161
9960 190
9961 230
9962 267
9963 313
9964 313
9965 326
9966 302
9967 307
9968 275
9969 235
9970 218
9971 184
9972 156
9973 132
9974 136
9975 109
9976 126
9977 144
9978 180
9979 197
9980 202
9981 243
9982 266
9983 310
9984 327
9985 361
9986 336
9987 323
9988 310
9989 261
9990 255
9991 230
9992 187
9993 140
9994 139
9995 106
9996 129
9997 134
9998 166
9999 219
10000 216
10001 261
10002 289
10003 331
10004 343
10005 361
10006 347
10007 331
10008 310
10009 275
10010 268
10011 232
10012 170
10013 135
10014 132
10015 116
10016 137
10017 170
10018 175
10019 198
10020 217
10021 258
10022 311
10023 348
10024 369
10025 366
10026 372
10027 350
10028 316
10029 275
10030 263
10031 229
10032 177
10033 153
10034 150
10035 142
10036 131
10037 158
10038 183
10039 215
10040 226
10041 254
10042 300
10043 313
10044 334
10045 345
10046 357
10047 336
10048 324
10049 291
10050 265
10051 248
10052 194
10053 161
10054 141
10055 137
10056 151
10057 152
10058 200
10059 235
10060 241
10061 255
10062 300
10063 348
10064 353
10065 362
10066 340
10067 338
10068 310
10069 274
10070 253
10071 216
10072 193
10073 145
10074 142
10075 113
10076 129
10077 122
10078 165
10079 222
10080 231
10081 263
10082 280
10083 329
10084 318
10085 362
10086 344
10087 338
10088 319
10089 278
10090 261
10091 210
10092 186
10093 140
10094 113
10095 89
10096 117
10097 126
10098 150
10099 199
10100 193
10101 240
10102 272
10103 328
10104 315
10105 340
10106 330
10107 301
10108 278
10109 240
10110 249
10111 204
10112 158
10113 126
10114 122
10115 104
10116 118
10117 138
10118 158
10119 190
10120 204
10121 247
10122 270
10123 298
10124 318
10125 306
10126 319
10127 311
10128 291
10129 247
10130 232
10131 206
10132 130
10133 89
10134 83
10135 82
10136 94
10137 132
10138 135
10139 151
10140 180
10141 217
10142 262
10143 294
10144 308
10145 304
10146 303
10147 296
10148 260
10149 230
10150 206
10151 187
10152 142
10153 120
10154 110
10155 86
10156 75
10157 81
10158 114
10159 147
10160 166
10161 185
10162 240
10163 280
10164 302
10165 338
10166 318
10167 306
10168 279
10169 252
10170 225
10171 185
10172 135
10173 110
10174 90
10175 77
10176 91
10177 82
10178 124
10179 146
10180 160
10181 208
10182 249
10183 293
10184 308
10185 314
10186 299
10187 309
10188 274
10189 232
10190 229
10191 178
10192 127
10193 91
10194 83
10195 77
10196 89
10197 94
10198 118
10199 177
10200 170
10201 204
10202 231
10203 277
10204 275
10205 296
10206 285
10207 271
10208 260
10209 212
10210 216
10211 165
10212 127
10213 91
10214 100
10215 68
10216 87
10217 101
10218 98
10219 143
10220 147
10221 207
10222 241
10223 298
10224 294
10225 300
10226 281
10227 265
10228 257
10229 202
10230 201
10231 152
10232 120
10233 79
10234 85
10235 90
10236 77
10237 91
10238 94
10239 143
10240 157
10241 191
10242 231
10243 266
10244 269
10245 284
10246 295
10247 274
10248 272
10249 209
10250 193
10251 149
10252 108
10253 71
10254 67
10255 70
10256 68
10257 90
10258 94
10259 119
10260 150
10261 181
10262 241
10263 274
10264 278
10265 273
10266 275
10267 286
10268 264
10269 222
10270 183
10271 152
10272 121
10273 82
10274 73
10275 71
10276 80
10277 85
10278 89
10279 118
10280 147
10281 191
10282 241
10283 268
10284 277
10285 283
10286 280
10287 274
10288 261
10289 202
10290 175
10291 152
10292 117
10293 85
10294 84
10295 62
10296 61
10297 64
10298 100
10299 143
10300 159
10301 192
10302 220
10303 251
10304 262
10305 293
10306 272
10307 273
10308 256
10309 214
10310 204
10311 162
10312 113
10313 76
10314 57
10315 29
10316 42
10317 65
10318 89
10319 146
10320 147
10321 187
10322 212
10323 265
10324 270
10325 293
10326 279
10327 267
10328 262
10329 202
10330 195
10331 148
10332 109
10333 85
10334 83
10335 72
10336 84
10337 90
10338 102
10339 144
10340 149
10341 183
10342 211
10343 249
10344 268
10345 284
10346 284
10347 256
10348 238
10349 213
10350 217
10351 154
10352 95
10353 82
10354 73
10355 60
10356 56
10357 64
10358 89
10359 140
10360 151
10361 180
10362 205
10363 251
10364 264
10365 261
10366 268
10367 259
10368 258
10369 233
10370 187
10371 156
10372 122
10373 86
10374 72
10375 72
10376 68
10377 68
10378 89
10379 128
10380 152
10381 170
10382 195
10383 230
10384 246
10385 278
10386 272
10387 264
10388 232
10389 198
10390 166
10391 133
10392 83
10393 58
10394 53
10395 46
10396 70
10397 77
10398 98
10399 127
10400 150
10401 173
10402 221
10403 260
10404 274
10405 288
10406 262
10407 249
10408 223
10409 185
10410 202
10411 177
10412 129
10413 77
10414 78
10415 55
10416 70
10417 67
10418 78
10419 116
10420 149
10421 195
10422 228
10423 263
10424 263
10425 269
10426 263
10427 262
10428 236
10429 186
10430 183
10431 157
10432 134
10433 68
10434 53
10435 48
10436 47
10437 47
10438 71
10439 127
10440 149
10441 203
10442 246
10443 279
10444 281
10445 297
10446 277
10447 263
10448 262
10449 232
10450 232
10451 179
10452 150
10453 101
10454 82
10455 59
10456 56
10457 81
10458 108
10459 166
10460 190
10461 249
10462 293
10463 331
10464 319
10465 349
10466 360
10467 350
10468 338
10469 308
10470 286
10471 267
10472 227
10473 201
10474 221
10475 220
10476 200
10477 224
10478 246
10479 274
10480 266
10481 277
10482 298
10483 328
10484 358
10485 368
10486 372
10487 358
10488 352
10489 287
10490 262
10491 234
10492 171
10493 128
10494 129
10495 125
10496 129
10497 138
10498 151
10499 204
10500 204
10501 218
10502 256
10503 276
10504 311
10505 324
10506 285
10507 259
10508 232
10509 233
10510 206
10511 181
10512 129
10513 81
10514 54
10515 50
10516 49
10517 44
10518 80
10519 122
10520 140
10521 187
10522 205
10523 236
10524 251
10525 267
10526 249
10527 246
10528 218
10529 180
10530 155
10531 137
10532 107
10533 54
10534 33
10535 18
10536 34
10537 45
10538 77
10539 128
10540 145
10541 168
10542 206
10543 241
10544 242
10545 280
10546 288
10547 271
10548 230
10549 188
10550 182
10551 134
10552 96
10553 54
10554 55
10555 36
10556 32
10557 38
10558 61
10559 92
10560 101
10561 160
10562 195
10563 246
10564 244
10565 275
10566 270
10567 253
10568 234
10569 188
10570 178
10571 129
10572 94
10573 57
10574 41
10575 12
10576 42
10577 66
10578 68
10579 86
10580 106
10581 156
10582 202
10583 244
10584 277
10585 331
10586 368
10587 362
10588 370
10589 355
10590 377
10591 367
10592 333
10593 312
10594 324
10595 325
10596 379
10597 468
10598 553
10599 704
10600 851
10601 999
10602 1121
10603 1237
10604 1325
10605 1344
10606 1393
10607 1443
10608 1508
10609 1472
10610 1439
10611 1345
10612 1189
10613 1088
10614 968
10615 820
10616 637
10617 481
10618 387
10619 338
10620 279
10621 202
10622 184
10623 178
10624 156
10625 100
10626 40
10627 26
10628 15
10629 -6
10630 -16
10631 -36
10632 -45
10633 -40
10634 -22
10635 -8
10636 27
10637 59
10638 119
10639 180
10640 224
10641 250
10642 294
10643 332
10644 335
10645 363
10646 348
10647 326
10648 305
10649 276
10650 246
10651 231
10652 185
10653 144
10654 134
10655 97
10656 106
10657 105
10658 139
10659 168
10660 199
10661 247
10662 284
10663 343
10664 349
10665 345
10666 309
10667 305
10668 284
10669 260
10670 235
10671 202
10672 164
10673 113
10674 111
10675 91
10676 119
10677 125
10678 165
10679 186
10680 200
10681 242
10682 274
10683 318
10684 322
10685 358
10686 348
10687 324
10688 307
10689 264
10690 264
10691 225
10692 203
10693 142
10694 138
10695 130
10696 147
10697 151
10698 152
10699 220
10700 243
10701 266
10702 288
10703 328
10704 338
10705 341
10706 345
10707 341
10708 332
10709 267
10710 259
10711 243
10712 213
10713 166
10714 156
10715 141
10716 137
10717 170
10718 183
10719 215
10720 232
10721 271
10722 314
10723 343
10724 351
10725 365
10726 360
10727 351
10728 332
10729 280
10730 271
10731 251
10732 200
10733 177
10734 167
10735 161
10736 173
10737 191
10738 225
10739 254
10740 273
10741 287
10742 342
10743 371
10744 381
10745 382
10746 391
10747 377
10748 369
10749 323
10750 308
10751 286
10752 220
10753 185
10754 169
10755 178
10756 212
10757 214
10758 229
10759 254
10760 275
10761 310
10762 341
10763 384
10764 398
10765 423
10766 414
10767 408
10768 375
10769 337
10770 321
10771 303
10772 279
10773 234
10774 220
10775 196
10776 221
10777 218
10778 238
10779 285
10780 306
10781 327
10782 370
10783 390
10784 420
10785 438
10786 426
10787 427
10788 403
10789 389
10790 359
10791 335
10792 312
10793 272
10794 267
10795 238
10796 241
10797 237
10798 254
10799 304
10800 340
10801 368
10802 391
10803 451
10804 452
10805 476
10806 455
10807 427
10808 424
10809 399
10810 396
10811 356
10812 315
10813 260
10814 262
10815 256
10816 270
10817 281
10818 301
10819 336
10820 326
10821 372
10822 418
10823 452
10824 437
10825 449
10826 449
10827 458
10828 454
10829 418
10830 421
10831 381
10832 336
10833 305
10834 309
10835 279
10836 287
10837 299
10838 298
10839 336
10840 354
10841 403
10842 435
10843 457
10844 485
10845 477
10846 475
10847 453
10848 442
10849 406
10850 405
10851 372
10852 337
10853 292
10854 257
10855 254
10856 260
10857 285
10858 314
10859 356
10860 349
10861 386
10862 430
10863 462
10864 466
10865 455
10866 435
10867 428
10868 436
10869 410
10870 402
10871 369
10872 313
10873 285
10874 263
10875 253
10876 263
10877 276
10878 299
10879 311
10880 325
10881 345
10882 388
10883 425
10884 434
10885 452
10886 433
10887 411
10888 391
10889 372
10890 363
10891 340
10892 281
10893 243
10894 237
10895 214
10896 227
10897 238
10898 257
10899 278
10900 299
10901 344
10902 376
10903 418
10904 420
10905 439
10906 418
10907 416
10908 382
10909 353
10910 333
10911 298
10912 272
10913 227
10914 225
10915 181
10916 203
10917 218
10918 237
10919 249
10920 266
10921 295
10922 345
10923 389
10924 365
10925 386
10926 369
10927 379
10928 346
10929 297
10930 285
10931 240
10932 202
10933 160
10934 158
10935 134
10936 153
10937 145
10938 162
10939 211
10940 207
10941 267
10942 299
10943 326
10944 325
10945 321
10946 301
10947 294
10948 302
10949 266
10950 259
10951 224
10952 162
10953 124
10954 98
10955 85
10956 98
10957 96
10958 131
10959 179
10960 193
10961 211
10962 231
10963 266
10964 265
10965 298
10966 286
10967 281
10968 274
10969 229
10970 218
10971 177
10972 138
10973 94
10974 82
10975 83
10976 96
10977 101
10978 121
10979 156
10980 172
10981 214
10982 250
10983 273
10984 303
10985 305
10986 283
10987 277
10988 265
10989 212
10990 207
10991 155
10992 115
10993 76
10994 52
10995 63
10996 73
10997 92
10998 114
10999 151
11000 167
11001 195
11002 252
11003 296
11004 301
11005 300
11006 305
11007 294
11008 264
11009 211
11010 178
11011 171
11012 123
11013 94
11014 83
11015 66
11016 85
11017 82
11018 110
11019 143
11020 154
11021 192
11022 241
11023 285
11024 283
11025 305
11026 288
11027 283
11028 257
11029 240
11030 219
11031 199
11032 151
11033 107
11034 107
11035 82
11036 97
11037 92
11038 113
11039 154
11040 184
11041 222
11042 269
11043 302
11044 295
11045 312
11046 306
11047 305
11048 306
11049 263
11050 244
11051 198
11052 158
11053 118
11054 118
11055 79
11056 101
11057 97
11058 131
11059 182
11060 174
11061 209
11062 227
11063 286
11064 281
11065 327
11066 313
11067 303
11068 285
11069 231
11070 236
11071 191
11072 163
11073 124
11074 115
11075 95
11076 108
11077 111
11078 135
11079 182
11080 183
11081 210
11082 242
11083 291
11084 313
11085 312
11086 323
11087 304
11088 289
11089 235
11090 240
11091 202
11092 145
11093 102
11094 104
11095 95
11096 82
11097 91
11098 98
11099 154
11100 167
11101 221
11102 246
11103 294
11104 310
11105 305
11106 310
11107 294
